0.75,2.86
0.76,2.45
0.75,2.15
0.75,1.98
0.76,1.89
0.74,1.86
0.75,1.89
0.76,1.96
0.75,2.04
0.75,2.13
0.76,2.21
0.75,2.29
0.76,2.35
0.76,2.40
0.74,2.44
0.76,2.47
0.76,2.49
0.74,2.50
0.76,2.51
0.75,2.51
0.75,2.51
0.76,2.49
0.75,2.46
0.74,2.44
0.76,2.42
0.75,2.41
0.74,2.41
0.76,2.40
0.75,2.41
0.75,2.41
0.76,2.33
0.75,2.37
0.75,2.40
0.76,2.44
0.75,2.48
0.75,2.53
0.76,2.56
0.75,2.60
0.75,2.62
0.76,2.63
0.75,2.63
0.75,2.62
0.76,2.61
0.74,2.59
0.75,2.59
0.76,2.56
0.75,2.52
0.75,2.50
0.75,2.49
0.75,2.49
0.76,2.49
0.76,2.49
0.74,2.48
0.75,2.48
0.75,2.47
0.75,2.48
0.76,2.48
0.75,2.48
0.74,2.48
0.76,2.49
0.75,2.49
0.74,2.49
0.76,2.49
0.75,2.49
0.75,2.50
0.76,2.51
0.75,2.53
0.76,2.44
0.76,2.46
0.75,2.47
0.75,2.48
0.76,2.48
0.75,2.48
0.75,2.47
0.76,2.47
0.75,2.46
0.75,2.46
0.76,2.46
0.75,2.46
0.76,2.47
0.76,2.47
0.75,2.47
0.76,2.46
0.76,2.45
0.75,2.44
0.76,2.45
0.76,2.44
0.75,2.44
0.76,2.45
0.75,2.44
0.75,2.43
0.76,2.42
0.75,2.41
0.75,2.40
0.76,2.40
0.75,2.40
0.75,2.39
0.76,2.40
0.75,2.40
0.75,2.42
0.76,2.44
0.75,2.45
0.75,2.46
0.76,2.48
0.75,2.40
0.75,2.46
0.76,2.50
0.75,2.54
0.75,2.56
0.76,2.58
0.75,2.59
0.75,2.59
0.76,2.58
0.75,2.56
0.75,2.56
0.76,2.56
0.75,2.56
0.75,2.56
0.76,2.57
0.75,2.56
0.75,2.55
0.76,2.53
0.75,2.52
0.75,2.50
0.76,2.49
0.75,2.50
0.75,2.49
0.76,2.50
0.75,2.50
0.75,2.50
0.76,2.49
0.76,2.48
0.75,2.48
0.76,2.47
0.76,2.47
0.75,2.46
0.75,2.46
0.76,2.46
0.75,2.45
0.75,2.46
0.76,2.39
0.76,2.41
0.75,2.43
0.76,2.46
0.75,2.46
0.75,2.46
0.76,2.47
0.76,2.48
0.75,2.47
0.76,2.46
0.76,2.46
0.75,2.44
0.75,2.44
0.76,2.44
0.75,2.44
0.75,2.43
0.76,2.43
0.75,2.43
0.75,2.43
0.76,2.44
0.75,2.44
0.74,2.45
0.76,2.45
0.76,2.42
0.75,2.42
0.76,2.40
0.76,2.39
0.75,2.39
0.76,2.39
0.76,2.39
0.75,2.39
0.75,2.40
0.76,2.41
0.75,2.43
0.75,2.47
0.77,2.43
0.75,2.48
0.75,2.54
0.76,2.59
0.76,2.61
0.75,2.62
0.76,2.62
0.76,2.61
0.75,2.61
0.75,2.60
0.76,2.60
0.75,2.58
0.75,2.56
0.76,2.54
0.75,2.52
0.75,2.53
0.76,2.53
0.75,2.52
0.75,2.51
0.76,2.51
0.76,2.50
0.75,2.51
0.76,2.51
0.76,2.51
0.75,2.51
0.75,2.52
0.76,2.51
0.75,2.52
0.75,2.53
0.76,2.52
0.75,2.51
0.75,2.51
0.76,2.50
0.75,2.48
0.75,2.46
0.76,2.41
0.75,2.36
0.75,2.40
0.76,2.42
0.76,2.44
0.75,2.45
0.75,2.46
0.76,2.46
0.75,2.46
0.75,2.45
0.76,2.44
0.75,2.44
0.75,2.44
0.76,2.42
0.75,2.41
0.75,2.41
0.76,2.39
0.75,2.39
0.75,2.39
0.76,2.40
0.76,2.40
0.75,2.41
0.76,2.42
0.76,2.42
0.75,2.41
0.75,2.42
0.76,2.43
0.75,2.43
0.75,2.44
0.76,2.44
0.75,2.44
0.75,2.44
0.76,2.46
0.76,2.48
0.75,2.49
0.76,2.51
0.76,2.45
0.75,2.50
0.76,2.54
0.76,2.57
0.75,2.58
0.75,2.57
0.76,2.58
0.75,2.58
0.75,2.57
0.76,2.56
0.75,2.55
0.75,2.54
0.76,2.54
0.75,2.53
0.75,2.53
0.76,2.53
0.76,2.53
0.75,2.53
0.76,2.52
0.76,2.50
0.75,2.49
0.75,2.49
0.76,2.48
0.75,2.48
0.75,2.48
0.76,2.49
0.75,2.48
0.75,2.48
0.76,2.48
0.75,2.47
0.75,2.46
0.76,2.46
0.76,2.47
0.75,2.46
0.76,2.46
0.76,2.47
0.75,2.41
0.76,2.44
0.76,2.46
0.75,2.47
0.75,2.45
0.76,2.44
0.75,2.44
0.75,2.45
0.76,2.44
0.76,2.45
0.75,2.45
0.76,2.46
0.75,2.47
0.75,2.47
0.76,2.46
0.76,2.45
0.75,2.45
0.76,2.44
0.76,2.42
0.75,2.40
0.75,2.40
0.76,2.39
0.75,2.39
0.75,2.39
0.76,2.40
0.75,2.40
0.75,2.40
0.76,2.41
0.76,2.43
0.75,2.44
0.76,2.46
0.76,2.49
0.75,2.52
0.75,2.54
0.76,2.56
0.75,2.51
0.75,2.56
0.76,2.59
0.75,2.61
0.75,2.62
0.76,2.61
0.75,2.61
0.75,2.60
0.76,2.57
0.76,2.55
0.75,2.55
0.76,2.54
0.76,2.51
0.75,2.51
0.76,2.50
0.76,2.48
0.75,2.47
0.75,2.46
0.76,2.46
0.75,2.46
0.75,2.46
0.76,2.46
0.75,2.46
0.75,2.46
0.76,2.46
0.76,2.45
0.75,2.45
0.76,2.46
0.76,2.46
0.74,2.46
0.76,2.46
0.76,2.48
0.75,2.50
0.75,2.50
0.76,2.50
0.75,2.41
0.75,2.43
0.76,2.45
0.75,2.45
0.75,2.45
0.76,2.45
0.75,2.45
0.75,2.45
0.76,2.45
0.76,2.45
0.75,2.46
0.76,2.45
0.76,2.45
0.75,2.44
0.76,2.43
0.76,2.42
0.75,2.41
0.75,2.41
0.76,2.40
0.75,2.39
0.75,2.40
0.76,2.41
0.75,2.42
0.75,2.43
0.76,2.46
0.76,2.50
0.75,2.52
0.76,2.54
0.76,2.57
0.75,2.59
0.76,2.60
0.76,2.61
0.75,2.61
0.76,2.62
0.76,2.61
0.75,2.61
0.75,2.51
0.76,2.51
0.75,2.52
0.75,2.52
0.76,2.52
0.76,2.52
0.75,2.51
0.76,2.51
0.76,2.49
0.75,2.48
0.76,2.47
0.76,2.47
0.75,2.47
0.76,2.47
0.76,2.46
0.75,2.46
0.75,2.48
0.76,2.49
0.75,2.50
0.75,2.51
0.76,2.52
0.76,2.51
0.75,2.50
0.76,2.48
0.76,2.47
0.75,2.46
0.76,2.45
0.76,2.45
0.75,2.45
0.75,2.44
0.77,2.43
0.75,2.42
0.76,2.41
0.76,2.41
0.75,2.41
0.75,2.34
0.76,2.37
0.76,2.39
0.75,2.41
0.76,2.43
0.76,2.45
0.75,2.46
0.76,2.47
0.76,2.47
0.75,2.46
0.75,2.47
0.76,2.46
0.75,2.46
0.75,2.45
0.76,2.44
0.75,2.42
0.75,2.42
0.76,2.42
0.76,2.44
0.75,2.46
0.76,2.49
0.76,2.50
0.75,2.52
0.76,2.53
0.76,2.55
0.75,2.56
0.76,2.57
0.76,2.58
0.75,2.58
0.76,2.58
0.76,2.60
0.75,2.61
0.75,2.61
0.76,2.59
0.76,2.58
0.75,2.55
0.76,2.48
0.76,2.50
0.75,2.50
0.76,2.50
0.76,2.50
0.75,2.50
0.76,2.50
0.76,2.50
0.75,2.49
0.75,2.49
0.77,2.49
0.75,2.48
0.75,2.49
0.76,2.49
0.75,2.49
0.75,2.49
0.76,2.49
0.76,2.48
0.75,2.48
0.76,2.48
0.76,2.49
0.75,2.49
0.76,2.49
0.76,2.49
0.75,2.48
0.76,2.47
0.76,2.46
0.75,2.46
0.75,2.45
0.77,2.44
0.75,2.44
0.75,2.44
0.76,2.44
0.76,2.43
0.75,2.43
0.76,2.34
0.76,2.38
0.75,2.41
0.76,2.41
0.76,2.42
0.75,2.42
0.76,2.43
0.76,2.42
0.75,2.42
0.75,2.42
0.76,2.42
0.75,2.43
0.75,2.44
0.76,2.45
0.76,2.47
0.75,2.48
0.76,2.51
0.76,2.52
0.75,2.53
0.76,2.55
0.76,2.57
0.75,2.59
0.76,2.60
0.76,2.61
0.75,2.61
0.76,2.61
0.77,2.60
0.75,2.58
0.75,2.55
0.76,2.52
0.75,2.50
0.75,2.49
0.76,2.49
0.76,2.49
0.75,2.50
0.76,2.44
0.76,2.42
0.75,2.45
0.76,2.48
0.76,2.50
0.75,2.51
0.75,2.52
0.76,2.52
0.75,2.51
0.75,2.51
0.77,2.51
0.75,2.51
0.75,2.50
0.76,2.50
0.76,2.49
0.75,2.49
0.76,2.49
0.76,2.50
0.75,2.49
0.76,2.49
0.76,2.49
0.75,2.47
0.75,2.46
0.76,2.44
0.75,2.42
0.75,2.41
0.76,2.39
0.76,2.40
0.75,2.40
0.76,2.42
0.76,2.42
0.75,2.42
0.76,2.42
0.76,2.41
0.75,2.41
0.76,2.41
0.76,2.31
0.75,2.36
0.75,2.40
0.76,2.43
0.75,2.43
0.75,2.43
0.76,2.43
0.75,2.43
0.75,2.42
0.76,2.42
0.76,2.43
0.75,2.43
0.76,2.44
0.76,2.44
0.75,2.44
0.76,2.44
0.76,2.45
0.75,2.45
0.76,2.45
0.76,2.47
0.75,2.50
0.75,2.52
0.77,2.54
0.75,2.56
0.75,2.57
0.77,2.58
0.76,2.58
0.75,2.58
0.76,2.58
0.76,2.58
0.75,2.58
0.76,2.58
0.76,2.57
0.75,2.54
0.76,2.53
0.77,2.51
0.75,2.41
0.75,2.44
0.76,2.45
0.75,2.45
0.75,2.45
0.76,2.45
0.76,2.45
0.75,2.45
0.76,2.46
0.76,2.46
0.75,2.47
0.76,2.47
0.76,2.48
0.75,2.49
0.76,2.50
0.76,2.50
0.75,2.50
0.76,2.49
0.77,2.48
0.75,2.48
0.76,2.47
0.76,2.47
0.76,2.46
0.75,2.45
0.76,2.45
0.76,2.43
0.75,2.41
0.76,2.40
0.76,2.39
0.75,2.39
0.76,2.39
0.76,2.39
0.75,2.39
0.75,2.40
0.77,2.41
0.77,2.37
0.75,2.38
0.76,2.40
0.75,2.42
0.75,2.43
0.76,2.44
0.76,2.45
0.75,2.44
0.76,2.43
0.76,2.42
0.75,2.41
0.76,2.40
0.76,2.40
0.75,2.41
0.76,2.42
0.77,2.42
0.75,2.44
0.75,2.45
0.76,2.47
0.76,2.47
0.75,2.48
0.76,2.50
0.76,2.51
0.75,2.53
0.76,2.53
0.76,2.54
0.75,2.54
0.76,2.54
0.76,2.54
0.75,2.53
0.76,2.52
0.77,2.51
0.75,2.49
0.75,2.49
0.77,2.49
0.75,2.49
0.75,2.42
0.77,2.45
0.76,2.47
0.75,2.48
0.76,2.48
0.76,2.47
0.75,2.46
0.76,2.46
0.76,2.45
0.75,2.46
0.76,2.47
0.76,2.46
0.75,2.46
0.76,2.46
0.76,2.45
0.75,2.45
0.75,2.45
0.77,2.44
0.76,2.44
0.75,2.45
0.76,2.45
0.76,2.45
0.75,2.44
0.76,2.45
0.76,2.45
0.75,2.44
0.76,2.42
0.77,2.41
0.75,2.40
0.76,2.39
0.77,2.40
0.75,2.39
0.75,2.39
0.77,2.40
0.76,2.40
0.76,2.35
0.76,2.35
0.76,2.38
0.75,2.42
0.76,2.44
0.76,2.46
0.75,2.46
0.76,2.45
0.76,2.43
0.75,2.43
0.76,2.42
0.77,2.42
0.76,2.42
0.75,2.42
0.76,2.41
0.76,2.41
0.75,2.41
0.76,2.43
0.76,2.44
0.75,2.46
0.76,2.48
0.76,2.50
0.75,2.51
0.76,2.54
0.76,2.54
0.75,2.54
0.76,2.54
0.77,2.53
0.75,2.52
0.76,2.51
0.77,2.50
0.76,2.50
0.75,2.50
0.76,2.50
0.76,2.49
0.75,2.49
0.76,2.39
0.76,2.41
0.75,2.41
0.76,2.42
0.76,2.44
0.75,2.45
0.76,2.45
0.76,2.47
0.75,2.47
0.75,2.46
0.77,2.46
0.75,2.45
0.75,2.45
0.76,2.44
0.76,2.44
0.75,2.46
0.76,2.46
0.76,2.46
0.75,2.45
0.76,2.45
0.76,2.44
0.75,2.43
0.76,2.42
0.76,2.42
0.75,2.42
0.75,2.42
0.76,2.41
0.76,2.39
0.75,2.39
0.76,2.39
0.76,2.38
0.75,2.38
0.77,2.38
0.76,2.39
0.75,2.39
0.76,2.32
0.77,2.35
0.75,2.37
0.76,2.39
0.77,2.41
0.75,2.41
0.76,2.42
0.77,2.43
0.75,2.44
0.75,2.46
0.77,2.46
0.76,2.47
0.75,2.47
0.76,2.47
0.76,2.47
0.75,2.48
0.76,2.50
0.76,2.51
0.75,2.52
0.76,2.53
0.76,2.53
0.75,2.53
0.75,2.54
0.76,2.53
0.75,2.51
0.75,2.50
0.77,2.49
0.76,2.48
0.75,2.48
0.76,2.47
0.76,2.47
0.75,2.47
0.76,2.46
0.76,2.46
0.75,2.45
0.76,2.45
0.76,2.38
0.75,2.42
0.76,2.46
0.76,2.48
0.75,2.49
0.75,2.50
0.77,2.49
0.76,2.49
0.75,2.50
0.77,2.48
0.76,2.47
0.75,2.46
0.76,2.45
0.77,2.44
0.75,2.43
0.76,2.42
0.77,2.42
0.75,2.42
0.76,2.43
0.77,2.44
0.76,2.43
0.75,2.43
0.77,2.44
0.76,2.44
0.75,2.44
0.77,2.44
0.76,2.44
0.75,2.43
0.77,2.43
0.76,2.43
0.75,2.41
0.76,2.40
0.77,2.39
0.75,2.40
0.76,2.40
0.77,2.39
0.75,2.33
0.75,2.37
0.77,2.42
0.76,2.44
0.75,2.46
0.77,2.46
0.76,2.47
0.75,2.47
0.77,2.46
0.76,2.44
0.75,2.44
0.76,2.45
0.77,2.46
0.75,2.46
0.76,2.48
0.77,2.51
0.75,2.53
0.76,2.52
0.77,2.51
0.76,2.49
0.75,2.48
0.77,2.47
0.76,2.47
0.75,2.48
0.76,2.49
0.76,2.50
0.75,2.50
0.76,2.49
0.76,2.48
0.76,2.47
0.76,2.47
0.76,2.47
0.76,2.48
0.76,2.47
0.77,2.46
0.76,2.45
0.75,2.39
0.76,2.42
0.76,2.44
0.75,2.46
0.77,2.47
0.76,2.46
0.75,2.46
0.76,2.46
0.76,2.46
0.75,2.45
0.76,2.43
0.77,2.41
0.75,2.40
0.75,2.40
0.77,2.41
0.76,2.41
0.76,2.41
0.77,2.41
0.76,2.40
0.75,2.42
0.76,2.42
0.76,2.42
0.75,2.42
0.77,2.43
0.77,2.42
0.75,2.43
0.76,2.44
0.77,2.44
0.75,2.44
0.76,2.43
0.77,2.41
0.75,2.41
0.76,2.41
0.77,2.41
0.76,2.41
0.75,2.31
0.77,2.36
0.76,2.39
0.75,2.42
0.76,2.43
0.76,2.43
0.75,2.44
0.76,2.44
0.77,2.45
0.75,2.46
0.76,2.48
0.77,2.51
0.75,2.51
0.76,2.51
0.77,2.51
0.75,2.51
0.75,2.51
0.77,2.50
0.76,2.50
0.75,2.49
0.77,2.49
0.76,2.48
0.75,2.48
0.76,2.47
0.77,2.45
0.76,2.45
0.76,2.43
0.77,2.43
0.75,2.43
0.75,2.44
0.77,2.44
0.76,2.43
0.76,2.43
0.77,2.42
0.76,2.42
0.75,2.42
0.77,2.36
0.76,2.39
0.75,2.42
0.76,2.45
0.77,2.47
0.75,2.48
0.76,2.49
0.77,2.50
0.76,2.49
0.76,2.47
0.77,2.46
0.76,2.46
0.75,2.46
0.77,2.45
0.76,2.44
0.75,2.44
0.77,2.43
0.76,2.42
0.75,2.42
0.77,2.41
0.76,2.41
0.75,2.42
0.76,2.42
0.77,2.42
0.76,2.43
0.76,2.44
0.77,2.44
0.76,2.44
0.76,2.44
0.77,2.43
0.76,2.43
0.75,2.44
0.77,2.45
0.76,2.44
0.75,2.44
0.76,2.37
0.76,2.40
0.75,2.43
0.76,2.46
0.77,2.50
0.75,2.52
0.76,2.53
0.77,2.54
0.76,2.54
0.76,2.54
0.77,2.54
0.76,2.54
0.75,2.53
0.77,2.52
0.76,2.52
0.75,2.51
0.76,2.50
0.77,2.47
0.75,2.47
0.76,2.46
0.77,2.45
0.75,2.45
0.76,2.45
0.77,2.44
0.75,2.44
0.76,2.45
0.77,2.45
0.76,2.44
0.76,2.45
0.77,2.47
0.76,2.47
0.75,2.48
0.77,2.48
0.76,2.49
0.75,2.48
0.76,2.48
0.77,2.41
0.75,2.43
0.76,2.44
0.77,2.45
0.76,2.46
0.76,2.46
0.77,2.46
0.76,2.46
0.75,2.46
0.77,2.46
0.76,2.45
0.76,2.45
0.76,2.44
0.76,2.43
0.75,2.42
0.76,2.42
0.77,2.41
0.75,2.43
0.76,2.45
0.77,2.45
0.76,2.46
0.76,2.46
0.77,2.46
0.75,2.45
0.76,2.46
0.77,2.45
0.76,2.46
0.75,2.46
0.77,2.45
0.76,2.45
0.75,2.45
0.76,2.44
0.77,2.46
0.75,2.48
0.76,2.50
0.77,2.45
0.75,2.49
0.76,2.52
0.77,2.54
0.76,2.55
0.76,2.56
0.77,2.57
0.76,2.55
0.75,2.55
0.77,2.54
0.76,2.53
0.75,2.52
0.77,2.52
0.76,2.50
0.75,2.49
0.76,2.48
0.77,2.47
0.76,2.46
0.76,2.46
0.77,2.47
0.76,2.47
0.76,2.47
0.77,2.47
0.76,2.47
0.76,2.47
0.77,2.48
0.76,2.48
0.75,2.48
0.77,2.49
0.76,2.49
0.75,2.49
0.77,2.50
0.77,2.49
0.75,2.48
0.76,2.47
0.77,2.39
0.76,2.42
0.76,2.45
0.77,2.46
0.76,2.46
0.75,2.46
0.77,2.46
0.76,2.45
0.75,2.47
0.77,2.47
0.76,2.48
0.75,2.49
0.76,2.49
0.77,2.48
0.75,2.47
0.76,2.47
0.77,2.46
0.75,2.45
0.76,2.44
0.77,2.45
0.76,2.44
0.76,2.44
0.77,2.45
0.76,2.44
0.75,2.44
0.77,2.44
0.76,2.44
0.75,2.45
0.77,2.45
0.76,2.46
0.76,2.47
0.76,2.50
0.77,2.52
0.76,2.53
0.76,2.53
0.77,2.47
0.76,2.48
0.76,2.51
0.77,2.52
0.76,2.53
0.75,2.54
0.77,2.57
0.76,2.58
0.75,2.58
0.76,2.58
0.76,2.56
0.75,2.55
0.77,2.54
0.77,2.52
0.75,2.50
0.76,2.50
0.77,2.50
0.76,2.49
0.76,2.48
0.77,2.48
0.76,2.48
0.76,2.48
0.77,2.48
0.76,2.48
0.75,2.48
0.77,2.49
0.76,2.50
0.75,2.49
0.76,2.50
0.77,2.49
0.76,2.49
0.76,2.49
0.77,2.49
0.76,2.48
0.76,2.48
0.77,2.48
0.76,2.39
0.75,2.42
0.77,2.44
0.76,2.45
0.75,2.47
0.77,2.47
0.76,2.47
0.75,2.47
0.76,2.48
0.77,2.48
0.76,2.47
0.76,2.47
0.77,2.46
0.76,2.46
0.76,2.45
0.77,2.45
0.76,2.45
0.76,2.46
0.77,2.47
0.76,2.48
0.76,2.47
0.77,2.46
0.77,2.45
0.75,2.44
0.77,2.44
0.77,2.44
0.75,2.44
0.76,2.46
0.77,2.47
0.76,2.50
0.76,2.51
0.77,2.52
0.76,2.53
0.76,2.55
0.77,2.56
0.76,2.56
0.75,2.49
0.77,2.53
0.76,2.54
0.75,2.54
0.76,2.55
0.77,2.54
0.76,2.54
0.76,2.54
0.77,2.53
0.76,2.52
0.76,2.52
0.77,2.52
0.76,2.50
0.75,2.49
0.77,2.48
0.76,2.48
0.75,2.47
0.77,2.46
0.77,2.47
0.75,2.47
0.77,2.48
0.77,2.49
0.75,2.50
0.76,2.51
0.77,2.52
0.76,2.52
0.76,2.51
0.77,2.51
0.76,2.50
0.76,2.51
0.77,2.50
0.76,2.50
0.76,2.50
0.77,2.49
0.76,2.48
0.76,2.39
0.77,2.42
0.76,2.44
0.76,2.47
0.76,2.49
0.77,2.50
0.76,2.50
0.76,2.51
0.77,2.49
0.76,2.48
0.76,2.46
0.77,2.46
0.76,2.45
0.76,2.44
0.77,2.44
0.76,2.45
0.75,2.45
0.77,2.45
0.76,2.45
0.75,2.46
0.77,2.47
0.77,2.47
0.76,2.48
0.76,2.47
0.77,2.46
0.76,2.47
0.76,2.48
0.77,2.47
0.76,2.46
0.76,2.47
0.77,2.47
0.76,2.48
0.76,2.50
0.77,2.53
0.76,2.55
0.76,2.54
0.77,2.50
0.77,2.53
0.76,2.56
0.76,2.57
0.77,2.58
0.76,2.59
0.76,2.58
0.77,2.58
0.76,2.57
0.76,2.56
0.77,2.55
0.76,2.53
0.76,2.51
0.77,2.50
0.77,2.49
0.76,2.49
0.77,2.49
0.77,2.49
0.75,2.49
0.76,2.49
0.77,2.49
0.76,2.50
0.76,2.50
0.77,2.49
0.76,2.49
0.76,2.50
0.77,2.51
0.76,2.50
0.76,2.50
0.77,2.50
0.76,2.48
0.75,2.47
0.77,2.47
0.77,2.47
0.76,2.46
0.76,2.39
0.77,2.44
0.76,2.46
0.76,2.48
0.77,2.48
0.76,2.47
0.76,2.46
0.77,2.46
0.76,2.46
0.76,2.46
0.77,2.45
0.76,2.45
0.76,2.45
0.77,2.46
0.77,2.46
0.75,2.46
0.76,2.46
0.77,2.45
0.75,2.46
0.76,2.47
0.77,2.47
0.76,2.47
0.76,2.47
0.77,2.46
0.76,2.46
0.76,2.46
0.77,2.47
0.76,2.48
0.76,2.49
0.77,2.52
0.77,2.53
0.75,2.55
0.77,2.57
0.77,2.59
0.76,2.59
0.76,2.59
0.77,2.52
0.76,2.54
0.76,2.57
0.77,2.57
0.76,2.58
0.76,2.58
0.77,2.56
0.76,2.55
0.76,2.53
0.77,2.52
0.77,2.51
0.75,2.51
0.77,2.51
0.77,2.51
0.76,2.50
0.76,2.50
0.77,2.49
0.76,2.48
0.76,2.49
0.77,2.48
0.76,2.49
0.76,2.50
0.77,2.51
0.76,2.50
0.76,2.51
0.76,2.50
0.76,2.49
0.75,2.48
0.76,2.48
0.76,2.48
0.75,2.48
0.76,2.50
0.77,2.52
0.76,2.51
0.76,2.51
0.77,2.43
0.76,2.45
0.76,2.46
0.77,2.46
0.76,2.46
0.76,2.46
0.77,2.46
0.76,2.46
0.75,2.45
0.77,2.45
0.76,2.44
0.75,2.44
0.76,2.44
0.77,2.43
0.76,2.43
0.76,2.44
0.77,2.44
0.76,2.43
0.76,2.44
0.77,2.44
0.76,2.44
0.76,2.45
0.77,2.47
0.76,2.48
0.76,2.50
0.77,2.54
0.77,2.56
0.76,2.58
0.77,2.59
0.77,2.61
0.76,2.61
0.76,2.61
0.77,2.61
0.76,2.60
0.76,2.59
0.77,2.52
0.76,2.54
0.76,2.55
0.77,2.54
0.76,2.54
0.76,2.54
0.77,2.54
0.77,2.53
0.76,2.53
0.77,2.53
0.77,2.53
0.76,2.53
0.77,2.54
0.77,2.53
0.76,2.52
0.76,2.51
0.77,2.50
0.76,2.49
0.76,2.50
0.77,2.51
0.76,2.50
0.76,2.50
0.77,2.50
0.77,2.49
0.76,2.48
0.77,2.48
0.77,2.47
0.76,2.47
0.76,2.47
0.77,2.48
0.76,2.48
0.76,2.48
0.77,2.47
0.76,2.47
0.76,2.46
0.77,2.39
0.76,2.41
0.76,2.44
0.78,2.46
0.77,2.47
0.76,2.48
0.77,2.48
0.77,2.48
0.76,2.47
0.76,2.47
0.77,2.47
0.76,2.46
0.76,2.46
0.77,2.45
0.76,2.45
0.76,2.46
0.77,2.45
0.76,2.46
0.76,2.47
0.77,2.49
0.76,2.51
0.76,2.53
0.77,2.57
0.77,2.58
0.76,2.61
0.77,2.61
0.77,2.62
0.76,2.61
0.77,2.61
0.77,2.61
0.76,2.58
0.76,2.56
0.77,2.55
0.76,2.54
0.76,2.54
0.77,2.45
0.77,2.49
0.76,2.52
0.77,2.53
0.77,2.53
0.76,2.52
0.77,2.51
0.77,2.50
0.76,2.50
0.76,2.50
0.77,2.51
0.76,2.51
0.76,2.51
0.77,2.51
0.76,2.51
0.76,2.51
0.77,2.50
0.76,2.48
0.76,2.46
0.77,2.46
0.77,2.45
0.76,2.44
0.77,2.43
0.77,2.44
0.76,2.44
0.76,2.46
0.77,2.47
0.76,2.47
0.76,2.47
0.77,2.46
0.76,2.45
0.76,2.43
0.77,2.43
0.76,2.43
0.76,2.43
0.77,2.44
0.77,2.37
0.76,2.40
0.77,2.42
0.77,2.43
0.76,2.44
0.77,2.44
0.77,2.44
0.76,2.44
0.76,2.47
0.77,2.48
0.76,2.49
0.76,2.50
0.77,2.50
0.76,2.50
0.76,2.51
0.77,2.53
0.76,2.54
0.76,2.56
0.77,2.58
0.77,2.60
0.76,2.61
0.77,2.63
0.77,2.64
0.76,2.64
0.76,2.63
0.77,2.62
0.76,2.60
0.76,2.58
0.77,2.56
0.76,2.55
0.76,2.55
0.77,2.53
0.76,2.52
0.76,2.50
0.77,2.49
0.77,2.41
0.76,2.45
0.77,2.47
0.77,2.49
0.76,2.49
0.76,2.52
0.77,2.53
0.76,2.53
0.76,2.53
0.77,2.52
0.76,2.50
0.76,2.50
0.77,2.49
0.76,2.49
0.76,2.48
0.77,2.49
0.77,2.49
0.76,2.48
0.77,2.49
0.77,2.48
0.76,2.47
0.77,2.47
0.77,2.47
0.76,2.47
0.76,2.47
0.77,2.46
0.76,2.45
0.76,2.44
0.77,2.43
0.76,2.43
0.76,2.43
0.77,2.44
0.76,2.43
0.76,2.43
0.77,2.43
0.77,2.34
0.76,2.39
0.77,2.44
0.77,2.48
0.76,2.51
0.76,2.56
0.77,2.60
0.76,2.62
0.76,2.65
0.77,2.66
0.76,2.66
0.76,2.65
0.77,2.64
0.77,2.62
0.76,2.62
0.77,2.61
0.77,2.60
0.76,2.57
0.77,2.55
0.77,2.53
0.76,2.51
0.76,2.49
0.77,2.48
0.76,2.48
0.76,2.49
0.77,2.49
0.77,2.50
0.76,2.50
0.77,2.50
0.77,2.50
0.76,2.50
0.77,2.50
0.77,2.49
0.76,2.50
0.77,2.50
0.77,2.50
0.76,2.41
0.77,2.46
0.77,2.48
0.76,2.49
0.76,2.50
0.77,2.50
0.77,2.50
0.76,2.50
0.77,2.51
0.77,2.49
0.76,2.48
0.77,2.47
0.77,2.46
0.76,2.45
0.77,2.43
0.77,2.43
0.76,2.42
0.76,2.43
0.77,2.43
0.76,2.42
0.76,2.42
0.77,2.42
0.76,2.42
0.76,2.41
0.78,2.41
0.76,2.42
0.76,2.43
0.77,2.46
0.77,2.49
0.76,2.52
0.77,2.55
0.77,2.57
0.76,2.60
0.76,2.63
0.77,2.64
0.76,2.57
0.77,2.61
0.77,2.63
0.76,2.64
0.76,2.65
0.77,2.64
0.77,2.63
0.76,2.61
0.77,2.60
0.77,2.58
0.76,2.58
0.77,2.56
0.77,2.55
0.76,2.53
0.77,2.51
0.77,2.49
0.76,2.48
0.77,2.47
0.77,2.47
0.76,2.48
0.76,2.49
0.77,2.49
0.76,2.49
0.76,2.50
0.77,2.50
0.77,2.49
0.76,2.50
0.77,2.50
0.77,2.49
0.76,2.49
0.77,2.49
0.77,2.49
0.76,2.49
0.76,2.49
0.77,2.47
0.76,2.44
0.76,2.39
0.77,2.41
0.76,2.43
0.76,2.45
0.78,2.46
0.77,2.46
0.76,2.46
0.77,2.47
0.77,2.46
0.76,2.45
0.77,2.43
0.77,2.43
0.76,2.42
0.77,2.42
0.77,2.42
0.76,2.42
0.76,2.43
0.77,2.42
0.76,2.43
0.76,2.45
0.77,2.47
0.76,2.50
0.76,2.53
0.78,2.57
0.77,2.59
0.76,2.62
0.77,2.63
0.77,2.62
0.76,2.61
0.77,2.61
0.77,2.58
0.76,2.56
0.76,2.56
0.77,2.54
0.76,2.53
0.76,2.46
0.77,2.51
0.77,2.52
0.76,2.53
0.77,2.54
0.76,2.54
0.76,2.54
0.77,2.53
0.77,2.53
0.76,2.51
0.77,2.50
0.77,2.49
0.76,2.48
0.76,2.48
0.77,2.48
0.76,2.50
0.76,2.50
0.77,2.50
0.76,2.49
0.76,2.48
0.77,2.48
0.77,2.46
0.76,2.46
0.77,2.45
0.77,2.45
0.76,2.45
0.77,2.46
0.77,2.45
0.76,2.44
0.76,2.43
0.77,2.42
0.76,2.41
0.76,2.41
0.78,2.42
0.76,2.41
0.76,2.36
0.77,2.40
0.77,2.42
0.76,2.43
0.77,2.44
0.77,2.45
0.76,2.44
0.77,2.43
0.77,2.43
0.76,2.42
0.76,2.43
0.77,2.42
0.76,2.43
0.76,2.43
0.77,2.43
0.76,2.45
0.76,2.47
0.77,2.49
0.77,2.52
0.76,2.55
0.77,2.58
0.77,2.60
0.76,2.61
0.77,2.61
0.77,2.61
0.76,2.59
0.76,2.59
0.77,2.57
0.76,2.56
0.76,2.56
0.77,2.55
0.76,2.53
0.76,2.51
0.77,2.50
0.76,2.48
0.76,2.39
0.77,2.43
0.77,2.44
0.76,2.46
0.77,2.47
0.77,2.48
0.76,2.48
0.77,2.49
0.77,2.50
0.76,2.49
0.76,2.49
0.77,2.48
0.76,2.47
0.76,2.48
0.77,2.47
0.76,2.46
0.76,2.46
0.77,2.46
0.77,2.45
0.76,2.45
0.76,2.43
0.77,2.43
0.76,2.43
0.76,2.44
0.77,2.44
0.76,2.43
0.76,2.43
0.77,2.42
0.76,2.42
0.76,2.41
0.77,2.41
0.76,2.41
0.76,2.42
0.77,2.42
0.76,2.42
0.75,2.35
0.77,2.38
0.76,2.40
0.75,2.41
0.76,2.42
0.76,2.43
0.76,2.44
0.76,2.44
0.77,2.43
0.75,2.40
0.76,2.39
0.77,2.39
0.76,2.39
0.75,2.40
0.76,2.42
0.76,2.45
0.75,2.49
0.76,2.53
0.76,2.55
0.75,2.57
0.76,2.58
0.76,2.58
0.75,2.57
0.76,2.57
0.76,2.55
0.75,2.53
0.75,2.53
0.76,2.52
0.75,2.51
0.75,2.50
0.76,2.49
0.76,2.47
0.75,2.47
0.76,2.46
0.76,2.46
0.75,2.39
0.76,2.41
0.76,2.44
0.75,2.46
0.75,2.46
0.76,2.46
0.75,2.46
0.75,2.46
0.76,2.47
0.75,2.47
0.75,2.48
0.76,2.48
0.75,2.49
0.75,2.49
0.76,2.47
0.76,2.45
0.75,2.45
0.76,2.45
0.76,2.44
0.75,2.43
0.75,2.44
0.76,2.43
0.75,2.43
0.75,2.44
0.76,2.43
0.75,2.42
0.75,2.41
0.76,2.42
0.75,2.42
0.74,2.43
0.76,2.44
0.75,2.43
0.74,2.42
0.76,2.41
0.75,2.41
0.75,2.40
0.75,2.33
0.76,2.36
0.74,2.39
0.75,2.40
0.76,2.42
0.74,2.43
0.75,2.44
0.76,2.44
0.75,2.46
0.75,2.47
0.75,2.49
0.75,2.51
0.74,2.53
0.75,2.54
0.75,2.55
0.74,2.56
0.75,2.55
0.75,2.55
0.74,2.53
0.75,2.52
0.76,2.51
0.74,2.50
0.74,2.50
0.75,2.50
0.74,2.49
0.74,2.49
0.76,2.48
0.74,2.46
0.74,2.45
0.75,2.44
0.75,2.44
0.74,2.44
0.75,2.45
0.75,2.46
0.74,2.45
0.75,2.36
0.75,2.39
0.74,2.43
0.74,2.45
0.75,2.47
0.74,2.47
0.74,2.49
0.75,2.49
0.74,2.49
0.74,2.49
0.75,2.48
0.74,2.47
0.74,2.46
0.75,2.45
0.75,2.45
0.74,2.44
0.74,2.44
0.75,2.42
0.74,2.41
0.74,2.41
0.75,2.41
0.74,2.40
0.74,2.39
0.75,2.39
0.74,2.38
0.74,2.38
0.75,2.39
0.74,2.39
0.74,2.40
0.74,2.41
0.74,2.41
0.73,2.41
0.74,2.40
0.74,2.40
0.73,2.40
0.74,2.31
0.75,2.36
0.73,2.42
0.74,2.46
0.75,2.48
0.74,2.49
0.73,2.51
0.75,2.52
0.74,2.53
0.73,2.54
0.74,2.55
0.74,2.54
0.73,2.54
0.74,2.54
0.74,2.53
0.74,2.51
0.74,2.51
0.74,2.50
0.73,2.50
0.74,2.50
0.75,2.50
0.73,2.47
0.73,2.45
0.74,2.45
0.73,2.45
0.73,2.45
0.74,2.45
0.74,2.47
0.73,2.48
0.74,2.49
0.74,2.49
0.73,2.49
0.74,2.48
0.74,2.47
0.73,2.46
0.74,2.43
0.75,2.40
0.73,2.43
0.73,2.46
0.74,2.47
0.74,2.48
0.73,2.49
0.74,2.48
0.74,2.47
0.73,2.46
0.74,2.46
0.74,2.45
0.73,2.45
0.74,2.45
0.74,2.45
0.73,2.44
0.74,2.43
0.74,2.43
0.73,2.42
0.73,2.42
0.74,2.42
0.73,2.41
0.73,2.42
0.74,2.42
0.74,2.43
0.73,2.42
0.74,2.41
0.74,2.41
0.73,2.41
0.74,2.41
0.74,2.41
0.73,2.41
0.74,2.41
0.74,2.41
0.73,2.41
0.73,2.40
0.74,2.34
0.73,2.37
0.73,2.40
0.74,2.44
0.73,2.45
0.73,2.49
0.74,2.52
0.73,2.54
0.73,2.55
0.74,2.56
0.74,2.56
0.73,2.55
0.73,2.54
0.74,2.53
0.73,2.52
0.73,2.52
0.74,2.51
0.73,2.51
0.73,2.50
0.74,2.49
0.73,2.49
0.73,2.49
0.74,2.48
0.73,2.49
0.73,2.48
0.73,2.48
0.74,2.46
0.73,2.46
0.73,2.45
0.74,2.44
0.73,2.44
0.73,2.44
0.74,2.45
0.73,2.45
0.73,2.47
0.74,2.38
0.73,2.40
0.73,2.42
0.74,2.44
0.73,2.45
0.72,2.46
0.74,2.48
0.73,2.48
0.73,2.49
0.74,2.49
0.74,2.49
0.73,2.48
0.73,2.47
0.74,2.46
0.73,2.44
0.73,2.42
0.74,2.42
0.73,2.43
0.73,2.43
0.74,2.43
0.74,2.42
0.73,2.42
0.74,2.42
0.74,2.42
0.73,2.41
0.73,2.41
0.74,2.42
0.73,2.42
0.73,2.43
0.74,2.43
0.73,2.43
0.73,2.42
0.74,2.42
0.73,2.41
0.73,2.41
0.74,2.41
0.73,2.35
0.73,2.38
0.73,2.43
0.74,2.46
0.73,2.48
0.74,2.50
0.74,2.52
0.73,2.52
0.73,2.53
0.74,2.54
0.73,2.54
0.73,2.55
0.74,2.54
0.73,2.53
0.73,2.52
0.74,2.51
0.73,2.50
0.73,2.49
0.74,2.48
0.73,2.48
0.72,2.47
0.74,2.47
0.73,2.46
0.73,2.46
0.73,2.45
0.74,2.44
0.73,2.44
0.73,2.44
0.74,2.44
0.73,2.45
0.73,2.46
0.74,2.46
0.73,2.46
0.73,2.46
0.74,2.46
0.74,2.45
0.73,2.38
0.74,2.42
0.73,2.45
0.73,2.46
0.74,2.48
0.74,2.50
0.73,2.50
0.73,2.49
0.74,2.49
0.73,2.48
0.73,2.47
0.74,2.46
0.73,2.47
0.73,2.47
0.74,2.46
0.73,2.45
0.73,2.44
0.74,2.44
0.74,2.43
0.73,2.43
0.73,2.43
0.74,2.43
0.73,2.44
0.73,2.45
0.74,2.45
0.73,2.45
0.73,2.44
0.74,2.44
0.73,2.44
0.73,2.44
0.74,2.45
0.73,2.47
0.73,2.49
0.74,2.50
0.74,2.51
0.72,2.52
0.73,2.47
0.74,2.50
0.73,2.52
0.73,2.53
0.74,2.55
0.73,2.55
0.73,2.56
0.74,2.56
0.73,2.55
0.73,2.53
0.74,2.52
0.73,2.50
0.73,2.48
0.74,2.48
0.74,2.47
0.73,2.47
0.74,2.47
0.74,2.49
0.73,2.49
0.73,2.49
0.74,2.48
0.73,2.48
0.73,2.48
0.74,2.47
0.73,2.47
0.73,2.48
0.74,2.48
0.74,2.47
0.73,2.47
0.74,2.47
0.73,2.47
0.73,2.47
0.74,2.47
0.74,2.46
0.73,2.46
0.74,2.40
0.74,2.43
0.73,2.44
0.73,2.45
0.74,2.45
0.73,2.44
0.73,2.44
0.74,2.44
0.73,2.44
0.73,2.45
0.74,2.45
0.73,2.46
0.73,2.46
0.74,2.46
0.73,2.46
0.73,2.45
0.73,2.45
0.74,2.43
0.73,2.43
0.74,2.44
0.74,2.43
0.73,2.44
0.73,2.46
0.74,2.45
0.73,2.46
0.73,2.47
0.74,2.49
0.73,2.50
0.73,2.53
0.74,2.54
0.74,2.55
0.73,2.56
0.74,2.56
0.74,2.56
0.73,2.55
0.74,2.48
0.74,2.47
0.73,2.50
0.73,2.51
0.74,2.52
0.73,2.52
0.73,2.52
0.74,2.51
0.74,2.51
0.73,2.51
0.74,2.51
0.74,2.51
0.73,2.51
0.74,2.49
0.74,2.48
0.73,2.48
0.73,2.48
0.74,2.48
0.73,2.48
0.73,2.49
0.74,2.48
0.73,2.48
0.73,2.48
0.74,2.48
0.73,2.47
0.73,2.47
0.74,2.48
0.74,2.49
0.73,2.49
0.74,2.50
0.74,2.50
0.73,2.50
0.74,2.50
0.74,2.49
0.73,2.48
0.73,2.47
0.74,2.38
0.73,2.41
0.73,2.42
0.74,2.44
0.74,2.45
0.73,2.46
0.74,2.47
0.73,2.47
0.73,2.47
0.74,2.46
0.74,2.46
0.73,2.46
0.74,2.45
0.74,2.45
0.73,2.44
0.73,2.45
0.74,2.45
0.73,2.45
0.73,2.45
0.74,2.46
0.73,2.45
0.73,2.45
0.74,2.46
0.73,2.47
0.73,2.47
0.74,2.48
0.74,2.50
0.73,2.51
0.74,2.53
0.74,2.55
0.73,2.56
0.74,2.57
0.74,2.56
0.73,2.56
0.74,2.58
0.74,2.58
0.73,2.47
0.73,2.50
0.74,2.52
0.74,2.53
0.73,2.54
0.74,2.54
0.74,2.54
0.73,2.55
0.74,2.55
0.74,2.55
0.73,2.54
0.74,2.53
0.74,2.51
0.73,2.49
0.73,2.49
0.74,2.50
0.73,2.50
0.73,2.51
0.74,2.51
0.74,2.51
0.73,2.49
0.74,2.47
0.74,2.46
0.73,2.46
0.74,2.46
0.74,2.47
0.73,2.47
0.74,2.49
0.74,2.50
0.73,2.51
0.74,2.51
0.74,2.51
0.73,2.50
0.74,2.49
0.74,2.48
0.73,2.40
0.73,2.43
0.74,2.45
0.74,2.45
0.73,2.45
0.74,2.46
0.74,2.45
0.73,2.45
0.74,2.45
0.74,2.44
0.73,2.44
0.74,2.45
0.74,2.45
0.73,2.46
0.73,2.47
0.74,2.47
0.73,2.47
0.73,2.47
0.74,2.46
0.74,2.47
0.73,2.47
0.74,2.47
0.74,2.48
0.73,2.48
0.74,2.49
0.74,2.51
0.73,2.52
0.74,2.53
0.74,2.55
0.73,2.57
0.73,2.58
0.74,2.59
0.73,2.58
0.73,2.57
0.74,2.54
0.74,2.44
0.73,2.47
0.74,2.49
0.74,2.50
0.73,2.51
0.74,2.53
0.74,2.53
0.73,2.53
0.74,2.54
0.75,2.53
0.73,2.52
0.74,2.53
0.74,2.53
0.73,2.52
0.73,2.53
0.74,2.53
0.74,2.53
0.73,2.53
0.74,2.52
0.74,2.52
0.73,2.52
0.74,2.51
0.74,2.51
0.73,2.51
0.74,2.50
0.74,2.50
0.73,2.49
0.74,2.48
0.75,2.47
0.73,2.46
0.73,2.47
0.74,2.46
0.74,2.47
0.73,2.48
0.75,2.48
0.74,2.47
0.73,2.39
0.74,2.42
0.74,2.43
0.73,2.44
0.74,2.45
0.74,2.47
0.73,2.47
0.74,2.49
0.75,2.50
0.73,2.50
0.74,2.49
0.74,2.49
0.74,2.48
0.73,2.47
0.75,2.47
0.74,2.47
0.73,2.46
0.74,2.44
0.74,2.45
0.73,2.44
0.74,2.44
0.74,2.44
0.73,2.47
0.74,2.48
0.75,2.49
0.73,2.52
0.73,2.55
0.74,2.57
0.74,2.59
0.73,2.61
0.74,2.61
0.74,2.61
0.73,2.61
0.74,2.60
0.74,2.58
0.73,2.49
0.74,2.52
0.75,2.53
0.73,2.54
0.74,2.55
0.74,2.54
0.73,2.53
0.73,2.52
0.75,2.52
0.74,2.51
0.73,2.51
0.75,2.51
0.74,2.52
0.73,2.53
0.74,2.52
0.74,2.52
0.73,2.51
0.74,2.51
0.74,2.52
0.73,2.52
0.74,2.53
0.75,2.52
0.74,2.52
0.74,2.51
0.75,2.51
0.73,2.49
0.73,2.49
0.75,2.49
0.74,2.47
0.73,2.48
0.74,2.49
0.74,2.48
0.73,2.49
0.74,2.49
0.74,2.48
0.73,2.41
0.74,2.41
0.75,2.43
0.73,2.45
0.74,2.47
0.75,2.48
0.73,2.49
0.73,2.49
0.74,2.49
0.74,2.47
0.73,2.46
0.75,2.46
0.74,2.45
0.73,2.45
0.74,2.44
0.74,2.44
0.73,2.44
0.74,2.43
0.74,2.43
0.73,2.44
0.74,2.45
0.75,2.47
0.73,2.50
0.73,2.54
0.74,2.56
0.74,2.58
0.74,2.61
0.74,2.61
0.74,2.62
0.73,2.61
0.75,2.62
0.74,2.61
0.73,2.61
0.74,2.60
0.74,2.58
0.73,2.57
0.74,2.47
0.75,2.49
0.74,2.51
0.73,2.52
0.75,2.54
0.73,2.54
0.74,2.55
0.75,2.54
0.74,2.54
0.73,2.53
0.75,2.52
0.74,2.52
0.73,2.51
0.74,2.51
0.75,2.51
0.73,2.50
0.74,2.50
0.75,2.49
0.73,2.49
0.74,2.50
0.75,2.49
0.74,2.50
0.74,2.51
0.75,2.52
0.74,2.51
0.73,2.52
0.75,2.52
0.74,2.51
0.73,2.51
0.74,2.50
0.74,2.49
0.73,2.48
0.74,2.46
0.75,2.45
0.73,2.45
0.74,2.45
0.75,2.38
0.74,2.41
0.74,2.43
0.75,2.44
0.74,2.45
0.74,2.44
0.75,2.44
0.74,2.45
0.73,2.45
0.75,2.46
0.74,2.45
0.73,2.46
0.74,2.47
0.74,2.47
0.73,2.47
0.74,2.48
0.75,2.48
0.73,2.49
0.74,2.51
0.75,2.53
0.74,2.54
0.74,2.56
0.75,2.56
0.74,2.58
0.73,2.58
0.75,2.59
0.74,2.59
0.73,2.60
0.74,2.61
0.75,2.61
0.73,2.60
0.74,2.59
0.75,2.58
0.74,2.57
0.74,2.56
0.75,2.47
0.73,2.50
0.74,2.52
0.75,2.53
0.74,2.53
0.73,2.53
0.75,2.52
0.74,2.51
0.73,2.51
0.74,2.51
0.74,2.51
0.74,2.52
0.74,2.52
0.75,2.51
0.73,2.51
0.74,2.52
0.75,2.51
0.74,2.50
0.74,2.49
0.75,2.49
0.74,2.49
0.73,2.50
0.75,2.50
0.74,2.49
0.73,2.48
0.74,2.47
0.75,2.46
0.74,2.46
0.75,2.45
0.74,2.46
0.74,2.45
0.74,2.46
0.75,2.46
0.74,2.47
0.74,2.46
0.75,2.39
0.74,2.41
0.73,2.43
0.75,2.43
0.74,2.43
0.73,2.44
0.75,2.44
0.74,2.43
0.74,2.44
0.74,2.44
0.75,2.44
0.74,2.45
0.74,2.45
0.75,2.45
0.74,2.45
0.74,2.46
0.75,2.46
0.74,2.45
0.74,2.45
0.75,2.46
0.74,2.47
0.73,2.49
0.74,2.52
0.74,2.54
0.73,2.57
0.74,2.60
0.74,2.62
0.74,2.63
0.74,2.62
0.75,2.61
0.74,2.59
0.74,2.57
0.75,2.56
0.74,2.56
0.73,2.57
0.75,2.56
0.74,2.47
0.74,2.50
0.75,2.53
0.75,2.54
0.74,2.55
0.75,2.54
0.74,2.54
0.73,2.53
0.74,2.53
0.75,2.53
0.73,2.52
0.74,2.53
0.75,2.52
0.74,2.52
0.74,2.51
0.75,2.51
0.74,2.51
0.73,2.51
0.75,2.51
0.74,2.50
0.73,2.48
0.75,2.48
0.75,2.47
0.73,2.46
0.74,2.46
0.75,2.47
0.73,2.47
0.74,2.47
0.75,2.46
0.74,2.45
0.74,2.45
0.75,2.45
0.74,2.44
0.74,2.44
0.75,2.44
0.74,2.36
0.74,2.40
0.74,2.43
0.74,2.44
0.74,2.46
0.74,2.46
0.74,2.46
0.73,2.45
0.74,2.46
0.75,2.45
0.74,2.44
0.74,2.44
0.75,2.44
0.74,2.44
0.74,2.44
0.75,2.44
0.74,2.42
0.73,2.42
0.75,2.42
0.74,2.42
0.74,2.43
0.74,2.45
0.75,2.47
0.74,2.48
0.74,2.50
0.75,2.53
0.74,2.54
0.74,2.57
0.75,2.60
0.74,2.61
0.74,2.62
0.75,2.62
0.74,2.61
0.74,2.59
0.75,2.58
0.75,2.56
0.73,2.47
0.74,2.49
0.74,2.50
0.73,2.52
0.74,2.53
0.75,2.53
0.74,2.52
0.74,2.51
0.75,2.51
0.74,2.50
0.74,2.50
0.75,2.49
0.74,2.48
0.73,2.47
0.75,2.47
0.74,2.47
0.74,2.47
0.75,2.49
0.75,2.50
0.74,2.51
0.74,2.51
0.75,2.51
0.74,2.51
0.74,2.51
0.75,2.50
0.74,2.50
0.74,2.49
0.75,2.48
0.74,2.46
0.74,2.46
0.75,2.45
0.74,2.45
0.74,2.46
0.75,2.46
0.74,2.46
0.73,2.46
0.74,2.39
0.75,2.41
0.74,2.43
0.74,2.45
0.75,2.45
0.74,2.44
0.74,2.45
0.75,2.44
0.74,2.44
0.74,2.44
0.75,2.45
0.74,2.45
0.73,2.45
0.75,2.45
0.75,2.45
0.74,2.46
0.75,2.46
0.75,2.46
0.74,2.47
0.74,2.48
0.75,2.50
0.74,2.53
0.74,2.54
0.75,2.57
0.74,2.60
0.74,2.62
0.75,2.62
0.74,2.62
0.74,2.61
0.75,2.60
0.74,2.58
0.73,2.56
0.74,2.55
0.75,2.54
0.74,2.53
0.74,2.44
0.75,2.46
0.74,2.47
0.74,2.48
0.75,2.49
0.74,2.50
0.74,2.49
0.75,2.50
0.74,2.50
0.74,2.50
0.75,2.51
0.75,2.51
0.74,2.50
0.75,2.50
0.75,2.50
0.74,2.51
0.74,2.51
0.75,2.50
0.74,2.48
0.74,2.47
0.75,2.46
0.74,2.46
0.74,2.46
0.75,2.46
0.74,2.45
0.74,2.46
0.75,2.47
0.74,2.47
0.74,2.46
0.75,2.46
0.75,2.45
0.74,2.45
0.75,2.43
0.75,2.44
0.73,2.44
0.74,2.37
0.75,2.39
0.74,2.42
0.74,2.44
0.75,2.45
0.74,2.46
0.74,2.47
0.75,2.47
0.74,2.47
0.74,2.46
0.75,2.45
0.74,2.44
0.73,2.44
0.75,2.43
0.75,2.43
0.74,2.43
0.74,2.43
0.75,2.43
0.74,2.43
0.74,2.44
0.75,2.44
0.74,2.44
0.74,2.47
0.75,2.48
0.74,2.49
0.74,2.49
0.75,2.50
0.74,2.50
0.74,2.51
0.74,2.52
0.75,2.51
0.74,2.50
0.74,2.50
0.75,2.51
0.74,2.51
0.74,2.42
0.75,2.45
0.74,2.47
0.74,2.48
0.75,2.49
0.74,2.50
0.74,2.49
0.75,2.49
0.74,2.48
0.74,2.47
0.74,2.47
0.75,2.47
0.74,2.47
0.74,2.47
0.75,2.46
0.74,2.45
0.74,2.45
0.75,2.46
0.74,2.46
0.74,2.46
0.75,2.44
0.74,2.43
0.74,2.43
0.75,2.43
0.74,2.44
0.74,2.45
0.75,2.47
0.75,2.47
0.74,2.47
0.74,2.47
0.75,2.48
0.74,2.48
0.74,2.48
0.75,2.47
0.74,2.45
0.73,2.44
0.75,2.38
0.74,2.41
0.74,2.43
0.75,2.44
0.74,2.45
0.74,2.46
0.75,2.46
0.75,2.46
0.74,2.45
0.75,2.45
0.75,2.45
0.74,2.46
0.75,2.45
0.75,2.44
0.74,2.44
0.74,2.46
0.75,2.48
0.74,2.49
0.74,2.53
0.75,2.56
0.74,2.59
0.74,2.61
0.75,2.62
0.74,2.62
0.74,2.61
0.74,2.61
0.75,2.60
0.74,2.60
0.74,2.59
0.75,2.59
0.74,2.57
0.74,2.56
0.75,2.55
0.74,2.53
0.74,2.51
0.75,2.42
0.74,2.44
0.74,2.46
0.75,2.47
0.74,2.47
0.74,2.47
0.75,2.49
0.75,2.50
0.74,2.51
0.75,2.52
0.75,2.52
0.74,2.53
0.74,2.53
0.75,2.53
0.74,2.51
0.74,2.51
0.75,2.51
0.74,2.50
0.74,2.50
0.75,2.50
0.75,2.49
0.74,2.48
0.75,2.48
0.75,2.47
0.74,2.47
0.75,2.46
0.75,2.46
0.74,2.47
0.74,2.47
0.75,2.47
0.74,2.46
0.74,2.47
0.75,2.47
0.74,2.46
0.74,2.46
0.75,2.34
0.75,2.38
0.73,2.41
0.75,2.43
0.75,2.45
0.74,2.46
0.74,2.47
0.75,2.47
0.74,2.48
0.74,2.49
0.75,2.51
0.74,2.53
0.74,2.55
0.75,2.57
0.74,2.60
0.74,2.61
0.75,2.62
0.74,2.64
0.74,2.64
0.75,2.64
0.75,2.64
0.74,2.63
0.75,2.63
0.75,2.62
0.74,2.61
0.75,2.59
0.75,2.58
0.74,2.57
0.74,2.55
0.75,2.54
0.74,2.53
0.74,2.51
0.75,2.50
0.74,2.50
0.74,2.50
0.75,2.50
0.75,2.43
0.74,2.48
0.75,2.51
0.75,2.53
0.74,2.55
0.75,2.57
0.75,2.58
0.74,2.57
0.74,2.58
0.75,2.57
0.74,2.55
0.74,2.54
0.75,2.51
0.74,2.50
0.74,2.49
0.75,2.49
0.75,2.47
0.74,2.47
0.75,2.46
0.75,2.45
0.74,2.44
0.75,2.44
0.75,2.44
0.74,2.44
0.74,2.44
0.76,2.44
0.74,2.44
0.74,2.45
0.75,2.45
0.74,2.44
0.74,2.44
0.75,2.45
0.75,2.45
0.74,2.45
0.75,2.46
0.74,2.40
0.74,2.39
0.75,2.41
0.75,2.43
0.74,2.45
0.74,2.46
0.75,2.46
0.74,2.46
0.74,2.46
0.75,2.46
0.74,2.44
0.74,2.44
0.75,2.45
0.74,2.44
0.74,2.45
0.75,2.46
0.75,2.47
0.74,2.48
0.75,2.50
0.75,2.53
0.74,2.56
0.74,2.59
0.75,2.62
0.74,2.65
0.74,2.67
0.75,2.68
0.74,2.68
0.74,2.67
0.75,2.67
0.74,2.65
0.74,2.64
0.75,2.64
0.74,2.63
0.74,2.62
0.75,2.61
0.74,2.57
0.74,2.51
0.74,2.53
0.75,2.53
0.74,2.53
0.74,2.54
0.75,2.54
0.74,2.55
0.74,2.56
0.75,2.56
0.74,2.56
0.74,2.56
0.75,2.56
0.74,2.54
0.74,2.53
0.75,2.52
0.74,2.52
0.74,2.52
0.74,2.52
0.75,2.52
0.73,2.51
0.74,2.50
0.75,2.50
0.74,2.48
0.73,2.48
0.75,2.48
0.74,2.48
0.73,2.48
0.75,2.47
0.74,2.46
0.74,2.47
0.74,2.47
0.74,2.47
0.74,2.48
0.74,2.48
0.74,2.48
0.73,2.40
0.74,2.44
0.75,2.45
0.74,2.46
0.74,2.46
0.74,2.47
0.74,2.46
0.73,2.46
0.75,2.45
0.74,2.42
0.73,2.40
0.75,2.40
0.74,2.39
0.73,2.40
0.74,2.40
0.74,2.43
0.73,2.44
0.74,2.46
0.74,2.47
0.73,2.48
0.74,2.49
0.74,2.50
0.73,2.52
0.73,2.53
0.74,2.56
0.73,2.59
0.73,2.62
0.74,2.64
0.74,2.65
0.73,2.67
0.74,2.67
0.74,2.67
0.73,2.67
0.74,2.67
0.74,2.66
0.73,2.58
0.73,2.61
0.74,2.61
0.73,2.62
0.73,2.62
0.74,2.63
0.73,2.62
0.73,2.61
0.74,2.59
0.73,2.57
0.73,2.56
0.74,2.56
0.74,2.55
0.73,2.55
0.73,2.53
0.74,2.52
0.73,2.53
0.73,2.55
0.74,2.55
0.73,2.56
0.73,2.56
0.74,2.56
0.73,2.56
0.73,2.56
0.74,2.54
0.73,2.52
0.73,2.51
0.74,2.50
0.73,2.49
0.73,2.47
0.73,2.46
0.74,2.45
0.73,2.44
0.73,2.45
0.74,2.45
0.72,2.39
0.73,2.42
0.74,2.46
0.73,2.48
0.72,2.50
0.74,2.50
0.73,2.50
0.72,2.49
0.73,2.48
0.73,2.47
0.72,2.46
0.73,2.45
0.73,2.44
0.72,2.44
0.73,2.44
0.73,2.42
0.72,2.43
0.73,2.43
0.73,2.42
0.73,2.42
0.72,2.41
0.73,2.42
0.72,2.41
0.72,2.42
0.73,2.41
0.73,2.40
0.72,2.42
0.73,2.42
0.73,2.44
0.72,2.46
0.73,2.49
0.73,2.52
0.72,2.55
0.72,2.59
0.73,2.63
0.73,2.60
0.72,2.62
0.73,2.66
0.72,2.68
0.72,2.69
0.73,2.69
0.72,2.68
0.72,2.67
0.73,2.66
0.73,2.65
0.71,2.63
0.73,2.62
0.73,2.61
0.72,2.60
0.72,2.58
0.73,2.57
0.72,2.56
0.72,2.55
0.73,2.53
0.72,2.52
0.72,2.52
0.73,2.51
0.72,2.50
0.71,2.49
0.72,2.49
0.72,2.48
0.71,2.47
0.72,2.49
0.73,2.49
0.71,2.52
0.72,2.53
0.73,2.52
0.72,2.50
0.71,2.49
0.73,2.48
0.72,2.46
0.71,2.39
0.73,2.42
0.72,2.46
0.71,2.47
0.72,2.48
0.72,2.49
0.71,2.48
0.72,2.47
0.72,2.46
0.71,2.46
0.72,2.45
0.73,2.44
0.71,2.43
0.71,2.42
0.72,2.42
0.71,2.42
0.71,2.41
0.72,2.40
0.72,2.39
0.71,2.39
0.72,2.40
0.72,2.40
0.71,2.41
0.72,2.41
0.72,2.40
0.71,2.39
0.71,2.40
0.72,2.40
0.71,2.39
0.71,2.38
0.72,2.39
0.71,2.39
0.71,2.39
0.72,2.40
0.72,2.39
0.70,2.35
0.72,2.36
0.72,2.40
0.71,2.45
0.72,2.49
0.72,2.54
0.71,2.59
0.71,2.61
0.72,2.63
0.71,2.64
0.71,2.65
0.72,2.65
0.71,2.64
0.71,2.64
0.72,2.64
0.72,2.63
0.71,2.63
0.72,2.61
0.72,2.59
0.71,2.57
0.72,2.55
0.72,2.52
0.71,2.52
0.71,2.51
0.72,2.51
0.71,2.50
0.71,2.49
0.72,2.48
0.71,2.47
0.71,2.47
0.72,2.46
0.71,2.45
0.71,2.45
0.72,2.45
0.71,2.46
0.71,2.46
0.72,2.39
0.72,2.43
0.71,2.46
0.72,2.48
0.72,2.49
0.71,2.49
0.71,2.49
0.72,2.48
0.71,2.47
0.71,2.46
0.72,2.45
0.71,2.43
0.71,2.42
0.72,2.42
0.71,2.41
0.71,2.41
0.72,2.41
0.71,2.40
0.71,2.40
0.71,2.39
0.71,2.39
0.71,2.39
0.71,2.39
0.72,2.39
0.71,2.39
0.71,2.39
0.72,2.39
0.71,2.39
0.71,2.39
0.72,2.39
0.71,2.39
0.71,2.39
0.71,2.38
0.71,2.39
0.71,2.37
0.72,2.26
0.71,2.30
0.71,2.32
0.71,2.34
0.72,2.36
0.71,2.37
0.71,2.38
0.72,2.40
0.71,2.42
0.71,2.44
0.72,2.46
0.71,2.48
0.71,2.51
0.72,2.53
0.71,2.54
0.71,2.56
0.71,2.56
0.72,2.56
0.71,2.57
0.71,2.57
0.72,2.56
0.71,2.55
0.71,2.57
0.72,2.57
0.71,2.56
0.71,2.54
0.72,2.52
0.71,2.50
0.71,2.48
0.72,2.47
0.71,2.47
0.71,2.46
0.71,2.45
0.72,2.45
0.70,2.45
0.71,2.37
0.72,2.39
0.71,2.42
0.71,2.43
0.72,2.45
0.71,2.45
0.71,2.45
0.72,2.45
0.71,2.45
0.70,2.45
0.72,2.46
0.71,2.44
0.70,2.42
0.72,2.41
0.72,2.39
0.70,2.38
0.71,2.39
0.72,2.38
0.71,2.38
0.71,2.39
0.72,2.41
0.71,2.41
0.71,2.41
0.72,2.42
0.71,2.41
0.71,2.41
0.72,2.40
0.71,2.39
0.70,2.38
0.72,2.38
0.72,2.37
0.71,2.35
0.71,2.35
0.72,2.35
0.70,2.35
0.71,2.27
0.72,2.32
0.71,2.36
0.71,2.40
0.72,2.40
0.71,2.39
0.71,2.39
0.72,2.39
0.71,2.39
0.70,2.38
0.72,2.39
0.72,2.40
0.71,2.39
0.71,2.40
0.72,2.39
0.71,2.39
0.71,2.39
0.72,2.40
0.71,2.41
0.71,2.42
0.72,2.44
0.71,2.46
0.71,2.47
0.72,2.48
0.71,2.49
0.71,2.49
0.72,2.50
0.71,2.50
0.71,2.50
0.72,2.51
0.72,2.51
0.71,2.50
0.72,2.49
0.72,2.48
0.71,2.48
0.71,2.41
0.72,2.40
0.71,2.41
0.71,2.42
0.72,2.43
0.71,2.42
0.71,2.42
0.72,2.42
0.71,2.41
0.71,2.41
0.72,2.43
0.72,2.42
0.71,2.42
0.71,2.42
0.72,2.40
0.71,2.39
0.71,2.39
0.72,2.39
0.71,2.39
0.71,2.39
0.72,2.41
0.71,2.42
0.71,2.41
0.72,2.41
0.71,2.40
0.71,2.40
0.72,2.39
0.72,2.39
0.71,2.40
0.71,2.41
0.72,2.41
0.71,2.42
0.71,2.42
0.72,2.41
0.71,2.42
0.71,2.43
0.72,2.36
0.71,2.39
0.71,2.40
0.72,2.42
0.72,2.42
0.71,2.42
0.72,2.41
0.72,2.41
0.71,2.41
0.72,2.41
0.72,2.40
0.71,2.39
0.71,2.38
0.72,2.37
0.71,2.37
0.71,2.37
0.72,2.37
0.71,2.38
0.71,2.39
0.72,2.40
0.71,2.43
0.71,2.45
0.72,2.46
0.72,2.48
0.71,2.48
0.72,2.49
0.72,2.49
0.71,2.49
0.71,2.49
0.72,2.48
0.71,2.49
0.71,2.48
0.72,2.48
0.71,2.48
0.71,2.48
0.72,2.39
0.71,2.41
0.71,2.43
0.72,2.44
0.71,2.45
0.71,2.45
0.72,2.46
0.72,2.46
0.71,2.45
0.71,2.44
0.72,2.44
0.71,2.43
0.71,2.43
0.72,2.44
0.71,2.44
0.71,2.44
0.72,2.44
0.72,2.43
0.71,2.42
0.72,2.42
0.71,2.42
0.71,2.41
0.72,2.40
0.72,2.40
0.71,2.41
0.72,2.41
0.72,2.41
0.71,2.41
0.71,2.40
0.72,2.39
0.71,2.39
0.71,2.39
0.72,2.39
0.71,2.39
0.71,2.40
0.72,2.33
0.72,2.37
0.71,2.39
0.72,2.41
0.72,2.40
0.71,2.40
0.72,2.41
0.72,2.40
0.71,2.40
0.71,2.40
0.72,2.42
0.71,2.43
0.71,2.44
0.72,2.44
0.71,2.44
0.71,2.43
0.72,2.42
0.72,2.43
0.71,2.42
0.72,2.42
0.72,2.42
0.71,2.42
0.72,2.42
0.72,2.44
0.71,2.46
0.71,2.47
0.72,2.48
0.71,2.48
0.71,2.48
0.72,2.48
0.71,2.48
0.71,2.49
0.72,2.48
0.71,2.48
0.71,2.48
0.72,2.50
0.71,2.44
0.71,2.47
0.72,2.49
0.72,2.49
0.71,2.49
0.71,2.49
0.72,2.48
0.71,2.48
0.71,2.48
0.73,2.47
0.71,2.45
0.71,2.44
0.72,2.45
0.72,2.45
0.71,2.45
0.72,2.45
0.72,2.46
0.71,2.46
0.72,2.45
0.72,2.42
0.71,2.41
0.72,2.41
0.72,2.41
0.71,2.41
0.72,2.41
0.72,2.43
0.71,2.42
0.71,2.43
0.72,2.43
0.71,2.42
0.71,2.42
0.72,2.42
0.72,2.41
0.71,2.42
0.72,2.44
0.72,2.36
0.71,2.39
0.72,2.41
0.72,2.43
0.71,2.44
0.72,2.44
0.72,2.45
0.71,2.44
0.71,2.43
0.72,2.42
0.71,2.42
0.71,2.42
0.72,2.42
0.72,2.42
0.71,2.42
0.72,2.42
0.72,2.41
0.71,2.41
0.72,2.40
0.72,2.39
0.71,2.38
0.72,2.37
0.72,2.37
0.71,2.38
0.71,2.39
0.73,2.41
0.71,2.43
0.71,2.46
0.73,2.48
0.71,2.48
0.71,2.49
0.72,2.51
0.72,2.53
0.71,2.54
0.72,2.56
0.72,2.56
0.71,2.45
0.71,2.48
0.72,2.50
0.71,2.51
0.71,2.52
0.72,2.52
0.71,2.51
0.71,2.51
0.72,2.49
0.71,2.48
0.71,2.46
0.72,2.44
0.72,2.44
0.71,2.44
0.72,2.44
0.72,2.46
0.71,2.47
0.72,2.47
0.73,2.47
0.71,2.46
0.71,2.46
0.72,2.46
0.71,2.45
0.71,2.45
0.72,2.45
0.71,2.45
0.71,2.45
0.72,2.45
0.72,2.44
0.71,2.45
0.72,2.45
0.72,2.45
0.71,2.46
0.72,2.46
0.72,2.46
0.71,2.36
0.72,2.40
0.72,2.44
0.71,2.44
0.71,2.44
0.72,2.44
0.72,2.44
0.71,2.44
0.72,2.44
0.72,2.44
0.71,2.45
0.72,2.46
0.72,2.45
0.71,2.46
0.71,2.45
0.72,2.44
0.71,2.42
0.72,2.42
0.73,2.41
0.71,2.41
0.71,2.42
0.72,2.43
0.72,2.43
0.71,2.43
0.72,2.43
0.72,2.43
0.71,2.43
0.72,2.43
0.72,2.44
0.71,2.46
0.72,2.48
0.72,2.50
0.71,2.51
0.72,2.53
0.72,2.54
0.71,2.52
0.71,2.47
0.72,2.52
0.72,2.55
0.71,2.57
0.72,2.58
0.72,2.58
0.71,2.58
0.72,2.57
0.72,2.56
0.71,2.55
0.72,2.53
0.72,2.51
0.71,2.50
0.72,2.48
0.72,2.47
0.71,2.47
0.72,2.47
0.72,2.46
0.71,2.45
0.71,2.45
0.73,2.45
0.72,2.45
0.71,2.46
0.72,2.47
0.72,2.46
0.71,2.47
0.72,2.47
0.72,2.48
0.71,2.49
0.72,2.49
0.73,2.49
0.71,2.49
0.72,2.49
0.72,2.49
0.71,2.48
0.71,2.40
0.72,2.43
0.72,2.45
0.71,2.46
0.72,2.46
0.72,2.46
0.71,2.46
0.72,2.47
0.72,2.46
0.71,2.47
0.72,2.46
0.73,2.46
0.71,2.45
0.71,2.45
0.72,2.44
0.71,2.43
0.71,2.43
0.72,2.42
0.72,2.41
0.71,2.41
0.72,2.42
0.72,2.42
0.71,2.43
0.72,2.43
0.72,2.42
0.71,2.43
0.72,2.44
0.72,2.45
0.71,2.46
0.72,2.46
0.72,2.46
0.71,2.46
0.72,2.47
0.73,2.47
0.72,2.48
0.71,2.41
0.72,2.45
0.72,2.50
0.71,2.53
0.72,2.55
0.72,2.57
0.71,2.58
0.72,2.58
0.72,2.57
0.71,2.55
0.72,2.54
0.72,2.52
0.71,2.50
0.72,2.48
0.72,2.47
0.72,2.45
0.71,2.44
0.72,2.44
0.72,2.44
0.71,2.43
0.72,2.43
0.72,2.43
0.71,2.43
0.72,2.43
0.72,2.43
0.71,2.43
0.72,2.44
0.73,2.45
0.71,2.46
0.72,2.46
0.72,2.46
0.71,2.47
0.71,2.46
0.73,2.46
0.72,2.46
0.71,2.45
0.72,2.37
0.72,2.40
0.71,2.43
0.72,2.44
0.72,2.45
0.71,2.45
0.72,2.45
0.72,2.45
0.71,2.45
0.72,2.44
0.72,2.43
0.72,2.42
0.71,2.41
0.73,2.42
0.72,2.42
0.71,2.42
0.72,2.43
0.72,2.42
0.71,2.42
0.72,2.42
0.72,2.42
0.71,2.42
0.72,2.44
0.72,2.46
0.71,2.46
0.71,2.47
0.73,2.46
0.71,2.46
0.71,2.45
0.72,2.44
0.72,2.45
0.71,2.44
0.72,2.46
0.72,2.46
0.71,2.46
0.72,2.39
0.72,2.43
0.71,2.46
0.72,2.48
0.73,2.50
0.71,2.51
0.72,2.53
0.72,2.54
0.71,2.55
0.72,2.56
0.72,2.57
0.72,2.56
0.71,2.56
0.72,2.56
0.72,2.55
0.71,2.55
0.73,2.56
0.72,2.55
0.71,2.53
0.72,2.52
0.73,2.51
0.71,2.51
0.72,2.50
0.72,2.49
0.71,2.49
0.71,2.48
0.73,2.48
0.72,2.48
0.72,2.48
0.72,2.48
0.72,2.49
0.71,2.48
0.72,2.47
0.72,2.46
0.71,2.46
0.72,2.39
0.73,2.41
0.71,2.44
0.72,2.46
0.73,2.48
0.71,2.49
0.72,2.49
0.73,2.49
0.71,2.49
0.72,2.49
0.72,2.49
0.72,2.49
0.71,2.47
0.72,2.48
0.72,2.47
0.71,2.46
0.72,2.45
0.72,2.45
0.71,2.47
0.72,2.48
0.72,2.48
0.72,2.48
0.72,2.48
0.73,2.47
0.71,2.47
0.71,2.46
0.73,2.46
0.72,2.46
0.71,2.46
0.73,2.45
0.72,2.44
0.71,2.43
0.72,2.42
0.73,2.42
0.71,2.42
0.72,2.43
0.73,2.38
0.71,2.42
0.72,2.48
0.73,2.52
0.72,2.56
0.72,2.60
0.72,2.62
0.72,2.63
0.71,2.64
0.72,2.63
0.72,2.62
0.71,2.62
0.72,2.61
0.72,2.60
0.71,2.58
0.72,2.57
0.73,2.54
0.72,2.53
0.72,2.52
0.73,2.52
0.72,2.51
0.72,2.50
0.73,2.49
0.72,2.48
0.71,2.48
0.73,2.48
0.72,2.48
0.71,2.51
0.73,2.52
0.72,2.51
0.71,2.50
0.72,2.51
0.73,2.50
0.71,2.50
0.72,2.51
0.73,2.42
0.71,2.45
0.72,2.49
0.73,2.52
0.72,2.51
0.71,2.51
0.73,2.52
0.72,2.51
0.71,2.50
0.72,2.50
0.72,2.50
0.71,2.50
0.72,2.49
0.73,2.49
0.71,2.48
0.72,2.49
0.73,2.48
0.72,2.47
0.72,2.47
0.73,2.46
0.72,2.47
0.72,2.46
0.73,2.45
0.72,2.45
0.72,2.46
0.73,2.46
0.72,2.45
0.71,2.45
0.72,2.44
0.72,2.43
0.71,2.41
0.72,2.41
0.73,2.40
0.71,2.41
0.72,2.42
0.73,2.41
0.71,2.40
0.72,2.46
0.73,2.50
0.72,2.54
0.71,2.57
0.73,2.60
0.72,2.63
0.71,2.65
0.72,2.68
0.72,2.69
0.71,2.67
0.72,2.65
0.73,2.62
0.71,2.61
0.72,2.59
0.73,2.58
0.72,2.56
0.71,2.56
0.73,2.55
0.72,2.54
0.71,2.53
0.73,2.52
0.72,2.50
0.71,2.50
0.73,2.49
0.72,2.50
0.72,2.50
0.72,2.52
0.73,2.52
0.72,2.53
0.72,2.52
0.73,2.52
0.72,2.52
0.72,2.51
0.73,2.53
0.72,2.44
0.71,2.48
0.73,2.51
0.72,2.53
0.72,2.53
0.72,2.54
0.72,2.54
0.71,2.53
0.72,2.52
0.73,2.51
0.71,2.49
0.72,2.48
0.73,2.48
0.71,2.49
0.72,2.49
0.73,2.47
0.72,2.46
0.72,2.45
0.73,2.44
0.72,2.43
0.72,2.44
0.73,2.45
0.72,2.45
0.71,2.45
0.72,2.45
0.72,2.46
0.72,2.47
0.72,2.48
0.73,2.48
0.71,2.47
0.72,2.48
0.73,2.48
0.72,2.47
0.72,2.47
0.73,2.46
0.72,2.45
0.71,2.37
0.73,2.41
0.73,2.44
0.71,2.46
0.72,2.50
0.73,2.54
0.71,2.56
0.72,2.59
0.73,2.61
0.71,2.62
0.72,2.64
0.73,2.64
0.72,2.64
0.71,2.63
0.73,2.63
0.72,2.63
0.72,2.63
0.73,2.61
0.72,2.61
0.72,2.60
0.72,2.58
0.72,2.56
0.71,2.54
0.72,2.54
0.73,2.53
0.71,2.52
0.72,2.52
0.73,2.53
0.72,2.53
0.72,2.53
0.73,2.52
0.72,2.53
0.72,2.54
0.73,2.54
0.72,2.54
0.71,2.47
0.73,2.50
0.72,2.52
0.72,2.53
0.72,2.52
0.73,2.53
0.72,2.53
0.72,2.54
0.73,2.54
0.72,2.54
0.72,2.54
0.73,2.52
0.72,2.49
0.71,2.49
0.73,2.47
0.72,2.46
0.71,2.46
0.72,2.47
0.73,2.48
0.71,2.47
0.72,2.48
0.73,2.47
0.72,2.46
0.72,2.46
0.73,2.46
0.72,2.45
0.72,2.45
0.73,2.45
0.72,2.43
0.72,2.42
0.73,2.42
0.72,2.41
0.71,2.42
0.73,2.43
0.72,2.44
0.71,2.37
0.73,2.40
0.73,2.43
0.71,2.45
0.72,2.47
0.73,2.49
0.72,2.51
0.72,2.52
0.73,2.54
0.72,2.57
0.72,2.61
0.73,2.63
0.72,2.65
0.71,2.67
0.72,2.66
0.72,2.66
0.72,2.65
0.72,2.64
0.73,2.62
0.72,2.60
0.72,2.59
0.73,2.58
0.72,2.56
0.72,2.56
0.73,2.56
0.72,2.56
0.72,2.56
0.73,2.56
0.72,2.56
0.72,2.57
0.73,2.58
0.73,2.58
0.72,2.57
0.72,2.56
0.73,2.56
0.73,2.53
0.72,2.47
0.73,2.49
0.72,2.51
0.72,2.52
0.73,2.53
0.72,2.53
0.72,2.52
0.73,2.51
0.72,2.50
0.72,2.50
0.73,2.50
0.72,2.49
0.72,2.49
0.73,2.49
0.72,2.49
0.72,2.49
0.72,2.48
0.73,2.48
0.71,2.47
0.72,2.47
0.73,2.48
0.72,2.48
0.72,2.49
0.73,2.49
0.72,2.48
0.71,2.47
0.73,2.46
0.72,2.46
0.72,2.46
0.73,2.44
0.72,2.45
0.72,2.45
0.72,2.44
0.73,2.43
0.72,2.42
0.72,2.33
0.73,2.35
0.72,2.38
0.72,2.40
0.73,2.41
0.72,2.43
0.72,2.45
0.73,2.47
0.72,2.50
0.72,2.54
0.73,2.57
0.73,2.59
0.71,2.62
0.73,2.64
0.73,2.65
0.72,2.67
0.72,2.68
0.73,2.66
0.72,2.65
0.72,2.62
0.73,2.61
0.72,2.60
0.72,2.59
0.73,2.58
0.72,2.56
0.72,2.55
0.73,2.55
0.72,2.54
0.71,2.54
0.72,2.53
0.73,2.53
0.72,2.53
0.72,2.52
0.73,2.53
0.72,2.53
0.72,2.53
0.73,2.47
0.72,2.50
0.72,2.53
0.73,2.54
0.72,2.54
0.72,2.55
0.73,2.55
0.72,2.55
0.72,2.55
0.72,2.55
0.73,2.54
0.72,2.52
0.72,2.51
0.73,2.48
0.72,2.47
0.72,2.46
0.73,2.46
0.72,2.45
0.72,2.45
0.73,2.45
0.72,2.45
0.72,2.45
0.73,2.44
0.72,2.45
0.72,2.44
0.73,2.44
0.73,2.45
0.72,2.46
0.72,2.48
0.73,2.48
0.72,2.48
0.72,2.46
0.73,2.45
0.72,2.43
0.72,2.42
0.72,2.36
0.72,2.37
0.72,2.40
0.73,2.44
0.72,2.47
0.72,2.50
0.73,2.52
0.73,2.54
0.72,2.57
0.72,2.61
0.73,2.64
0.72,2.66
0.72,2.67
0.73,2.67
0.72,2.67
0.72,2.67
0.73,2.66
0.72,2.65
0.72,2.63
0.73,2.62
0.72,2.62
0.72,2.62
0.73,2.61
0.73,2.61
0.72,2.59
0.73,2.57
0.73,2.55
0.71,2.53
0.72,2.52
0.73,2.52
0.72,2.52
0.72,2.51
0.73,2.50
0.72,2.49
0.72,2.49
0.73,2.49
0.72,2.41
0.72,2.44
0.73,2.47
0.73,2.49
0.72,2.52
0.72,2.55
0.73,2.56
0.72,2.55
0.72,2.55
0.73,2.53
0.72,2.51
0.72,2.50
0.73,2.50
0.72,2.50
0.72,2.49
0.73,2.48
0.72,2.46
0.72,2.46
0.73,2.46
0.72,2.45
0.72,2.43
0.72,2.43
0.73,2.43
0.72,2.42
0.72,2.43
0.73,2.44
0.72,2.43
0.72,2.42
0.73,2.42
0.72,2.42
0.72,2.43
0.73,2.44
0.73,2.44
0.72,2.44
0.73,2.44
0.73,2.43
0.72,2.33
0.73,2.39
0.73,2.44
0.72,2.49
0.73,2.54
0.73,2.59
0.72,2.62
0.72,2.66
0.73,2.69
0.72,2.70
0.72,2.70
0.73,2.69
0.72,2.68
0.72,2.66
0.73,2.65
0.72,2.64
0.72,2.62
0.73,2.63
0.73,2.63
0.72,2.63
0.72,2.62
0.73,2.61
0.72,2.60
0.72,2.57
0.73,2.57
0.72,2.57
0.72,2.57
0.73,2.56
0.72,2.54
0.72,2.53
0.73,2.52
0.73,2.50
0.72,2.50
0.73,2.49
0.73,2.49
0.73,2.39
0.73,2.43
0.72,2.48
0.72,2.50
0.73,2.52
0.73,2.53
0.72,2.53
0.72,2.53
0.73,2.54
0.72,2.54
0.72,2.53
0.73,2.52
0.72,2.50
0.72,2.48
0.73,2.48
0.72,2.46
0.72,2.45
0.73,2.45
0.73,2.45
0.72,2.44
0.72,2.43
0.73,2.42
0.72,2.41
0.72,2.41
0.73,2.42
0.72,2.43
0.72,2.44
0.73,2.45
0.73,2.43
0.72,2.43
0.73,2.42
0.73,2.42
0.72,2.41
0.73,2.42
0.73,2.41
0.72,2.42
0.72,2.34
0.73,2.40
0.72,2.46
0.72,2.53
0.73,2.60
0.72,2.64
0.72,2.68
0.73,2.72
0.73,2.74
0.72,2.75
0.73,2.77
0.73,2.77
0.72,2.75
0.73,2.73
0.73,2.70
0.72,2.66
0.73,2.63
0.73,2.61
0.72,2.61
0.72,2.59
0.73,2.59
0.72,2.58
0.72,2.58
0.74,2.58
0.73,2.59
0.72,2.59
0.73,2.58
0.73,2.56
0.72,2.55
0.73,2.54
0.73,2.53
0.72,2.53
0.73,2.54
0.73,2.54
0.72,2.53
0.73,2.44
0.73,2.47
0.72,2.50
0.72,2.52
0.73,2.52
0.72,2.51
0.72,2.50
0.73,2.49
0.73,2.48
0.72,2.48
0.73,2.48
0.73,2.48
0.72,2.47
0.73,2.47
0.73,2.47
0.72,2.48
0.72,2.49
0.73,2.49
0.72,2.49
0.72,2.48
0.73,2.47
0.72,2.46
0.72,2.46
0.73,2.45
0.72,2.45
0.72,2.44
0.73,2.42
0.73,2.39
0.72,2.39
0.73,2.39
0.73,2.39
0.72,2.39
0.73,2.39
0.73,2.40
0.72,2.39
0.72,2.34
0.73,2.38
0.72,2.41
0.72,2.43
0.73,2.45
0.72,2.47
0.72,2.49
0.73,2.52
0.73,2.55
0.72,2.58
0.73,2.62
0.73,2.65
0.72,2.68
0.73,2.70
0.73,2.70
0.72,2.69
0.72,2.69
0.73,2.68
0.72,2.66
0.72,2.66
0.73,2.66
0.73,2.65
0.72,2.65
0.73,2.63
0.72,2.61
0.72,2.59
0.73,2.58
0.73,2.57
0.72,2.56
0.73,2.57
0.73,2.57
0.72,2.55
0.72,2.53
0.73,2.52
0.72,2.51
0.73,2.50
0.73,2.44
0.72,2.47
0.72,2.50
0.73,2.53
0.73,2.55
0.72,2.56
0.73,2.56
0.73,2.56
0.72,2.56
0.73,2.55
0.73,2.53
0.72,2.51
0.72,2.50
0.73,2.47
0.72,2.45
0.72,2.45
0.73,2.43
0.72,2.42
0.72,2.42
0.73,2.43
0.73,2.42
0.72,2.43
0.73,2.44
0.73,2.43
0.72,2.42
0.73,2.42
0.73,2.42
0.72,2.42
0.73,2.42
0.73,2.43
0.72,2.43
0.72,2.42
0.73,2.42
0.72,2.41
0.72,2.41
0.73,2.32
0.73,2.35
0.72,2.38
0.73,2.39
0.73,2.41
0.72,2.42
0.73,2.42
0.73,2.42
0.72,2.42
0.73,2.42
0.73,2.43
0.72,2.46
0.72,2.48
0.73,2.51
0.72,2.55
0.72,2.60
0.73,2.62
0.73,2.65
0.72,2.67
0.73,2.69
0.73,2.70
0.72,2.70
0.73,2.70
0.73,2.68
0.72,2.67
0.73,2.65
0.73,2.63
0.72,2.61
0.72,2.60
0.73,2.59
0.72,2.57
0.72,2.56
0.74,2.55
0.72,2.55
0.72,2.53
0.73,2.51
0.73,2.43
0.72,2.46
0.73,2.48
0.73,2.49
0.72,2.51
0.73,2.52
0.73,2.53
0.72,2.52
0.72,2.53
0.73,2.52
0.72,2.51
0.72,2.50
0.74,2.49
0.73,2.48
0.72,2.48
0.74,2.47
0.73,2.46
0.72,2.45
0.73,2.45
0.73,2.43
0.72,2.42
0.73,2.42
0.73,2.41
0.72,2.41
0.73,2.42
0.74,2.43
0.72,2.43
0.72,2.44
0.74,2.43
0.72,2.42
0.72,2.42
0.73,2.41
0.73,2.41
0.72,2.41
0.73,2.41
0.73,2.33
0.72,2.35
0.73,2.37
0.73,2.38
0.72,2.39
0.72,2.40
0.74,2.41
0.72,2.43
0.72,2.44
0.73,2.44
0.73,2.44
0.72,2.44
0.73,2.45
0.73,2.47
0.72,2.50
0.72,2.53
0.73,2.57
0.72,2.61
0.73,2.64
0.73,2.67
0.72,2.69
0.73,2.70
0.73,2.70
0.73,2.68
0.72,2.67
0.73,2.66
0.72,2.64
0.73,2.63
0.73,2.61
0.72,2.59
0.72,2.58
0.73,2.55
0.73,2.53
0.72,2.52
0.73,2.50
0.73,2.41
0.72,2.43
0.73,2.45
0.73,2.47
0.72,2.49
0.73,2.51
0.73,2.52
0.72,2.51
0.72,2.52
0.74,2.52
0.73,2.52
0.72,2.52
0.73,2.53
0.73,2.52
0.72,2.51
0.73,2.50
0.73,2.48
0.72,2.46
0.73,2.45
0.73,2.44
0.72,2.44
0.73,2.44
0.73,2.44
0.72,2.44
0.72,2.44
0.74,2.43
0.73,2.42
0.72,2.42
0.74,2.41
0.73,2.40
0.72,2.41
0.73,2.42
0.73,2.43
0.72,2.43
0.73,2.43
0.72,2.40
0.72,2.36
0.73,2.38
0.74,2.39
0.72,2.41
0.73,2.43
0.74,2.44
0.72,2.44
0.72,2.43
0.73,2.42
0.73,2.41
0.72,2.42
0.73,2.44
0.73,2.48
0.72,2.52
0.73,2.59
0.73,2.64
0.72,2.68
0.73,2.72
0.73,2.73
0.72,2.73
0.73,2.73
0.74,2.71
0.73,2.71
0.72,2.69
0.74,2.68
0.73,2.65
0.72,2.63
0.73,2.61
0.73,2.59
0.72,2.57
0.73,2.55
0.73,2.53
0.72,2.52
0.73,2.52
0.74,2.52
0.72,2.45
0.73,2.49
0.73,2.50
0.72,2.51
0.72,2.52
0.74,2.53
0.73,2.53
0.72,2.54
0.74,2.55
0.73,2.56
0.72,2.55
0.73,2.53
0.73,2.51
0.72,2.49
0.73,2.47
0.73,2.46
0.72,2.44
0.73,2.44
0.74,2.43
0.72,2.45
0.73,2.45
0.74,2.45
0.73,2.44
0.72,2.43
0.73,2.43
0.73,2.42
0.72,2.43
0.73,2.42
0.73,2.42
0.72,2.42
0.73,2.42
0.73,2.41
0.72,2.41
0.73,2.41
0.73,2.40
0.73,2.31
0.73,2.36
0.74,2.39
0.72,2.41
0.72,2.42
0.73,2.43
0.73,2.43
0.72,2.42
0.73,2.42
0.73,2.43
0.72,2.43
0.73,2.45
0.73,2.49
0.72,2.52
0.73,2.56
0.73,2.60
0.72,2.65
0.73,2.68
0.74,2.71
0.72,2.72
0.72,2.73
0.74,2.74
0.73,2.73
0.72,2.72
0.73,2.69
0.73,2.67
0.72,2.65
0.73,2.63
0.73,2.61
0.72,2.60
0.73,2.60
0.74,2.60
0.72,2.59
0.73,2.58
0.74,2.56
0.73,2.50
0.72,2.46
0.74,2.48
0.73,2.50
0.72,2.51
0.73,2.54
0.73,2.55
0.72,2.55
0.73,2.54
0.73,2.54
0.72,2.53
0.73,2.53
0.73,2.52
0.72,2.51
0.73,2.51
0.74,2.51
0.72,2.51
0.73,2.50
0.74,2.48
0.73,2.46
0.72,2.46
0.73,2.45
0.73,2.44
0.72,2.44
0.73,2.44
0.73,2.43
0.72,2.41
0.73,2.41
0.73,2.40
0.72,2.40
0.73,2.40
0.74,2.41
0.72,2.41
0.72,2.42
0.73,2.44
0.73,2.43
0.72,2.37
0.73,2.39
0.73,2.40
0.72,2.40
0.73,2.40
0.73,2.41
0.72,2.41
0.73,2.40
0.74,2.41
0.72,2.42
0.73,2.43
0.74,2.43
0.72,2.45
0.72,2.48
0.73,2.51
0.73,2.55
0.72,2.60
0.74,2.65
0.73,2.69
0.72,2.72
0.73,2.74
0.73,2.75
0.72,2.76
0.73,2.74
0.74,2.73
0.72,2.72
0.73,2.71
0.74,2.68
0.72,2.65
0.72,2.63
0.73,2.61
0.73,2.60
0.72,2.59
0.73,2.59
0.73,2.59
0.72,2.49
0.73,2.51
0.73,2.53
0.72,2.55
0.73,2.56
0.73,2.57
0.72,2.56
0.73,2.56
0.74,2.54
0.73,2.54
0.73,2.52
0.74,2.53
0.72,2.52
0.73,2.51
0.74,2.50
0.73,2.49
0.72,2.49
0.74,2.48
0.73,2.47
0.72,2.48
0.73,2.48
0.73,2.48
0.72,2.46
0.73,2.45
0.74,2.43
0.72,2.41
0.73,2.41
0.74,2.40
0.72,2.40
0.73,2.39
0.74,2.40
0.73,2.40
0.73,2.40
0.74,2.42
0.73,2.42
0.72,2.43
0.74,2.36
0.73,2.39
0.72,2.41
0.73,2.43
0.73,2.44
0.73,2.44
0.73,2.43
0.74,2.42
0.72,2.41
0.73,2.40
0.74,2.40
0.73,2.40
0.73,2.41
0.74,2.43
0.73,2.44
0.72,2.48
0.73,2.52
0.74,2.55
0.72,2.61
0.73,2.65
0.74,2.68
0.72,2.72
0.73,2.75
0.74,2.76
0.73,2.76
0.73,2.75
0.74,2.73
0.73,2.71
0.72,2.68
0.74,2.67
0.73,2.65
0.73,2.64
0.73,2.62
0.73,2.61
0.72,2.60
0.74,2.49
0.74,2.49
0.72,2.50
0.73,2.51
0.74,2.52
0.73,2.53
0.73,2.54
0.74,2.54
0.73,2.54
0.73,2.53
0.73,2.52
0.73,2.50
0.73,2.50
0.74,2.49
0.73,2.48
0.72,2.49
0.74,2.50
0.74,2.51
0.72,2.50
0.73,2.50
0.73,2.49
0.72,2.48
0.73,2.47
0.73,2.46
0.73,2.45
0.73,2.44
0.74,2.45
0.73,2.43
0.72,2.41
0.74,2.40
0.73,2.39
0.72,2.39
0.74,2.39
0.73,2.40
0.72,2.41
0.73,2.39
0.74,2.36
0.73,2.39
0.73,2.40
0.74,2.41
0.73,2.41
0.73,2.39
0.74,2.39
0.73,2.38
0.73,2.39
0.74,2.39
0.73,2.38
0.72,2.39
0.73,2.39
0.73,2.40
0.73,2.40
0.74,2.42
0.74,2.44
0.72,2.46
0.73,2.50
0.74,2.55
0.73,2.59
0.73,2.63
0.74,2.67
0.73,2.69
0.72,2.71
0.74,2.73
0.73,2.73
0.72,2.74
0.73,2.72
0.74,2.70
0.73,2.68
0.73,2.65
0.73,2.63
0.73,2.61
0.73,2.59
0.74,2.50
0.73,2.51
0.73,2.51
0.74,2.52
0.73,2.52
0.72,2.52
0.74,2.52
0.73,2.51
0.72,2.51
0.74,2.50
0.73,2.50
0.72,2.50
0.73,2.51
0.74,2.51
0.73,2.51
0.73,2.50
0.74,2.49
0.73,2.48
0.73,2.47
0.74,2.46
0.73,2.46
0.73,2.45
0.74,2.46
0.73,2.45
0.72,2.45
0.74,2.44
0.73,2.43
0.73,2.41
0.73,2.41
0.74,2.40
0.73,2.40
0.73,2.41
0.74,2.40
0.72,2.40
0.73,2.39
0.74,2.30
0.73,2.32
0.73,2.35
0.74,2.37
0.73,2.38
0.73,2.39
0.74,2.40
0.73,2.41
0.72,2.41
0.73,2.41
0.74,2.40
0.73,2.39
0.73,2.39
0.74,2.38
0.72,2.38
0.73,2.39
0.74,2.41
0.73,2.43
0.73,2.46
0.74,2.51
0.73,2.54
0.73,2.59
0.74,2.63
0.73,2.68
0.72,2.72
0.74,2.75
0.73,2.76
0.72,2.75
0.73,2.73
0.74,2.71
0.73,2.69
0.73,2.66
0.74,2.63
0.73,2.61
0.73,2.60
0.74,2.59
0.73,2.48
0.73,2.49
0.74,2.49
0.73,2.49
0.72,2.50
0.73,2.49
0.74,2.48
0.72,2.47
0.73,2.47
0.73,2.46
0.72,2.46
0.73,2.48
0.74,2.50
0.73,2.50
0.73,2.51
0.74,2.50
0.73,2.49
0.73,2.47
0.74,2.46
0.73,2.44
0.73,2.43
0.74,2.43
0.73,2.43
0.72,2.42
0.73,2.42
0.74,2.42
0.72,2.42
0.73,2.41
0.74,2.40
0.73,2.41
0.73,2.40
0.74,2.39
0.73,2.39
0.73,2.38
0.74,2.38
0.73,2.36
0.73,2.27
0.74,2.31
0.73,2.33
0.72,2.36
0.74,2.38
0.74,2.38
0.73,2.38
0.73,2.39
0.74,2.38
0.73,2.37
0.73,2.37
0.74,2.37
0.72,2.36
0.73,2.36
0.74,2.37
0.73,2.37
0.73,2.37
0.74,2.39
0.73,2.43
0.73,2.47
0.74,2.51
0.74,2.56
0.73,2.61
0.73,2.66
0.74,2.69
0.73,2.70
0.73,2.71
0.74,2.70
0.73,2.69
0.73,2.68
0.74,2.66
0.73,2.64
0.73,2.62
0.74,2.60
0.73,2.57
0.73,2.47
0.74,2.49
0.74,2.50
0.73,2.50
0.74,2.52
0.74,2.52
0.73,2.50
0.73,2.49
0.74,2.48
0.73,2.47
0.73,2.46
0.74,2.46
0.73,2.45
0.73,2.46
0.74,2.47
0.73,2.47
0.72,2.46
0.74,2.45
0.73,2.45
0.72,2.44
0.73,2.43
0.74,2.43
0.73,2.44
0.73,2.44
0.74,2.43
0.73,2.41
0.73,2.40
0.74,2.39
0.73,2.38
0.73,2.38
0.74,2.37
0.73,2.36
0.73,2.36
0.74,2.37
0.73,2.36
0.73,2.29
0.74,2.32
0.74,2.33
0.72,2.36
0.73,2.38
0.74,2.38
0.73,2.37
0.73,2.38
0.74,2.38
0.73,2.37
0.73,2.36
0.74,2.35
0.73,2.34
0.73,2.34
0.74,2.33
0.73,2.34
0.73,2.35
0.73,2.36
0.74,2.37
0.73,2.38
0.73,2.39
0.74,2.40
0.73,2.43
0.73,2.46
0.74,2.49
0.73,2.54
0.73,2.58
0.74,2.61
0.73,2.63
0.73,2.65
0.74,2.65
0.73,2.62
0.73,2.60
0.73,2.59
0.73,2.57
0.73,2.55
0.73,2.48
0.74,2.50
0.73,2.52
0.73,2.53
0.74,2.53
0.73,2.52
0.73,2.51
0.74,2.51
0.73,2.50
0.73,2.50
0.74,2.50
0.73,2.49
0.73,2.47
0.74,2.46
0.74,2.46
0.73,2.46
0.73,2.45
0.74,2.46
0.73,2.46
0.73,2.45
0.74,2.45
0.73,2.45
0.73,2.45
0.74,2.43
0.73,2.41
0.73,2.41
0.74,2.40
0.73,2.39
0.73,2.39
0.74,2.40
0.73,2.39
0.73,2.38
0.74,2.38
0.74,2.38
0.73,2.37
0.73,2.29
0.74,2.32
0.73,2.34
0.73,2.36
0.74,2.38
0.73,2.38
0.73,2.39
0.74,2.38
0.73,2.39
0.73,2.38
0.74,2.36
0.74,2.35
0.73,2.33
0.74,2.33
0.73,2.33
0.73,2.34
0.74,2.35
0.74,2.36
0.73,2.36
0.73,2.36
0.74,2.38
0.73,2.39
0.73,2.42
0.74,2.46
0.73,2.50
0.73,2.55
0.74,2.60
0.73,2.63
0.73,2.65
0.74,2.66
0.74,2.66
0.73,2.65
0.74,2.64
0.74,2.62
0.73,2.60
0.73,2.57
0.74,2.47
0.73,2.47
0.73,2.48
0.74,2.48
0.73,2.47
0.73,2.46
0.74,2.45
0.73,2.45
0.73,2.45
0.74,2.45
0.74,2.45
0.73,2.44
0.73,2.45
0.74,2.44
0.73,2.44
0.73,2.46
0.74,2.48
0.73,2.49
0.73,2.50
0.74,2.49
0.73,2.46
0.73,2.46
0.74,2.45
0.73,2.43
0.73,2.42
0.74,2.42
0.74,2.41
0.73,2.41
0.74,2.41
0.74,2.41
0.73,2.39
0.73,2.39
0.74,2.38
0.73,2.37
0.73,2.36
0.74,2.29
0.73,2.33
0.73,2.35
0.74,2.36
0.73,2.38
0.73,2.38
0.74,2.39
0.74,2.38
0.73,2.39
0.74,2.39
0.74,2.39
0.73,2.39
0.73,2.39
0.74,2.39
0.73,2.39
0.73,2.39
0.74,2.39
0.73,2.39
0.73,2.39
0.74,2.39
0.73,2.40
0.73,2.41
0.74,2.44
0.74,2.45
0.73,2.47
0.74,2.50
0.74,2.52
0.73,2.54
0.73,2.57
0.74,2.59
0.73,2.61
0.73,2.61
0.74,2.61
0.73,2.59
0.73,2.60
0.75,2.54
0.73,2.52
0.73,2.54
0.74,2.56
0.74,2.56
0.73,2.57
0.74,2.56
0.74,2.54
0.73,2.52
0.73,2.50
0.74,2.46
0.73,2.44
0.73,2.44
0.74,2.43
0.72,2.42
0.73,2.40
0.74,2.38
0.73,2.36
0.73,2.34
0.74,2.34
0.73,2.34
0.72,2.35
0.74,2.36
0.74,2.36
0.73,2.37
0.73,2.37
0.74,2.37
0.73,2.37
0.73,2.37
0.74,2.36
0.73,2.36
0.73,2.37
0.74,2.38
0.73,2.39
0.73,2.39
0.74,2.38
0.74,2.30
0.73,2.32
0.74,2.34
0.74,2.34
0.73,2.35
0.74,2.36
0.74,2.36
0.73,2.35
0.73,2.35
0.74,2.35
0.73,2.36
0.73,2.36
0.74,2.36
0.73,2.37
0.73,2.37
0.74,2.38
0.73,2.38
0.73,2.39
0.74,2.39
0.73,2.39
0.73,2.41
0.74,2.43
0.74,2.43
0.73,2.44
0.74,2.46
0.74,2.48
0.73,2.49
0.73,2.51
0.74,2.51
0.73,2.52
0.73,2.52
0.74,2.52
0.73,2.50
0.73,2.48
0.74,2.48
0.74,2.39
0.73,2.42
0.74,2.44
0.74,2.44
0.73,2.45
0.74,2.45
0.74,2.44
0.73,2.42
0.74,2.42
0.74,2.42
0.73,2.41
0.73,2.44
0.74,2.46
0.73,2.45
0.73,2.45
0.74,2.46
0.74,2.46
0.73,2.46
0.74,2.46
0.74,2.46
0.73,2.45
0.74,2.42
0.74,2.40
0.73,2.39
0.73,2.39
0.74,2.39
0.73,2.40
0.73,2.40
0.74,2.39
0.73,2.40
0.73,2.40
0.74,2.39
0.73,2.39
0.73,2.39
0.74,2.39
0.74,2.31
0.73,2.35
0.74,2.37
0.74,2.40
0.73,2.42
0.73,2.44
0.74,2.44
0.73,2.43
0.73,2.43
0.74,2.42
0.73,2.40
0.73,2.40
0.74,2.41
0.73,2.41
0.73,2.42
0.74,2.44
0.74,2.46
0.73,2.47
0.74,2.48
0.74,2.50
0.73,2.51
0.73,2.53
0.74,2.54
0.73,2.56
0.73,2.57
0.74,2.57
0.73,2.57
0.73,2.57
0.74,2.57
0.73,2.56
0.73,2.55
0.74,2.53
0.74,2.51
0.73,2.51
0.74,2.50
0.74,2.49
0.73,2.41
0.74,2.43
0.74,2.44
0.73,2.45
0.74,2.46
0.74,2.45
0.73,2.45
0.73,2.46
0.74,2.46
0.73,2.46
0.73,2.46
0.74,2.46
0.74,2.45
0.73,2.45
0.74,2.45
0.74,2.45
0.73,2.44
0.74,2.45
0.74,2.46
0.73,2.46
0.73,2.46
0.74,2.45
0.73,2.44
0.73,2.43
0.74,2.43
0.74,2.43
0.73,2.43
0.74,2.43
0.73,2.42
0.73,2.42
0.74,2.40
0.74,2.39
0.73,2.39
0.74,2.39
0.74,2.39
0.73,2.30
0.73,2.33
0.74,2.36
0.73,2.38
0.73,2.40
0.74,2.43
0.73,2.45
0.73,2.46
0.74,2.50
0.73,2.52
0.73,2.56
0.74,2.60
0.74,2.61
0.73,2.61
0.74,2.61
0.74,2.60
0.73,2.59
0.73,2.58
0.74,2.56
0.73,2.54
0.73,2.52
0.74,2.50
0.73,2.47
0.73,2.46
0.74,2.45
0.73,2.44
0.73,2.43
0.74,2.43
0.74,2.42
0.73,2.43
0.74,2.44
0.74,2.44
0.73,2.46
0.73,2.47
0.74,2.47
0.73,2.38
0.73,2.41
0.74,2.43
0.73,2.44
0.73,2.47
0.74,2.48
0.73,2.48
0.73,2.48
0.74,2.48
0.73,2.46
0.73,2.45
0.74,2.44
0.73,2.42
0.73,2.41
0.73,2.41
0.74,2.41
0.73,2.40
0.73,2.39
0.74,2.39
0.73,2.40
0.73,2.40
0.74,2.41
0.73,2.42
0.73,2.43
0.74,2.44
0.73,2.43
0.72,2.44
0.73,2.43
0.73,2.43
0.72,2.42
0.73,2.43
0.73,2.42
0.72,2.42
0.73,2.43
0.74,2.41
0.73,2.37
0.73,2.35
0.74,2.40
0.73,2.43
0.73,2.47
0.74,2.51
0.73,2.53
0.72,2.55
0.73,2.56
0.73,2.59
0.72,2.59
0.73,2.59
0.73,2.58
0.72,2.56
0.73,2.55
0.74,2.53
0.72,2.51
0.73,2.51
0.74,2.50
0.72,2.50
0.72,2.50
0.73,2.48
0.72,2.46
0.72,2.47
0.74,2.47
0.73,2.46
0.72,2.45
0.73,2.43
0.73,2.42
0.72,2.41
0.73,2.41
0.73,2.41
0.72,2.42
0.72,2.44
0.73,2.44
0.72,2.44
0.72,2.38
0.73,2.42
0.72,2.45
0.72,2.47
0.73,2.48
0.72,2.47
0.72,2.48
0.73,2.47
0.73,2.47
0.72,2.45
0.72,2.43
0.73,2.42
0.71,2.42
0.72,2.41
0.73,2.39
0.71,2.41
0.71,2.42
0.72,2.43
0.71,2.43
0.71,2.42
0.72,2.41
0.72,2.39
0.71,2.38
0.72,2.38
0.72,2.38
0.71,2.38
0.72,2.39
0.72,2.39
0.71,2.39
0.71,2.40
0.72,2.41
0.71,2.42
0.71,2.44
0.72,2.46
0.71,2.47
0.70,2.49
0.72,2.45
0.72,2.49
0.71,2.54
0.72,2.57
0.71,2.59
0.70,2.59
0.71,2.58
0.72,2.58
0.71,2.57
0.71,2.56
0.72,2.54
0.70,2.51
0.71,2.49
0.72,2.47
0.70,2.46
0.70,2.46
0.72,2.45
0.71,2.45
0.70,2.46
0.71,2.47
0.71,2.47
0.70,2.46
0.71,2.46
0.71,2.45
0.70,2.45
0.70,2.45
0.71,2.45
0.70,2.46
0.70,2.47
0.71,2.48
0.70,2.48
0.70,2.48
0.71,2.48
0.70,2.47
0.69,2.47
0.72,2.44
0.70,2.40
0.69,2.42
0.70,2.44
0.71,2.45
0.70,2.48
0.70,2.49
0.71,2.48
0.69,2.48
0.70,2.48
0.71,2.47
0.69,2.44
0.69,2.44
0.70,2.42
0.69,2.42
0.69,2.43
0.70,2.43
0.70,2.42
0.69,2.43
0.70,2.44
0.70,2.44
0.69,2.44
0.69,2.45
0.70,2.42
0.69,2.39
0.69,2.39
0.70,2.39
0.69,2.38
0.69,2.39
0.70,2.40
0.69,2.41
0.69,2.45
0.70,2.48
0.69,2.50
0.69,2.51
0.70,2.53
0.69,2.47
0.68,2.52
0.69,2.55
0.70,2.56
0.68,2.55
0.69,2.54
0.69,2.52
0.68,2.51
0.68,2.50
0.70,2.51
0.68,2.53
0.68,2.52
0.69,2.51
0.69,2.50
0.68,2.49
0.69,2.48
0.69,2.47
0.68,2.45
0.69,2.47
0.69,2.47
0.68,2.48
0.68,2.49
0.69,2.49
0.68,2.47
0.68,2.46
0.69,2.45
0.68,2.44
0.68,2.44
0.69,2.45
0.68,2.46
0.68,2.46
0.69,2.47
0.68,2.47
0.67,2.49
0.68,2.49
0.68,2.41
0.67,2.44
0.68,2.46
0.68,2.47
0.67,2.47
0.68,2.45
0.69,2.43
0.67,2.42
0.67,2.41
0.69,2.41
0.68,2.40
0.67,2.40
0.68,2.41
0.68,2.42
0.67,2.42
0.68,2.44
0.68,2.45
0.67,2.45
0.68,2.44
0.68,2.44
0.67,2.43
0.67,2.42
0.68,2.43
0.67,2.42
0.67,2.41
0.68,2.40
0.67,2.39
0.67,2.39
0.68,2.40
0.67,2.41
0.67,2.44
0.68,2.46
0.67,2.49
0.67,2.51
0.67,2.53
0.68,2.42
0.67,2.46
0.67,2.51
0.68,2.53
0.67,2.54
0.67,2.56
0.68,2.56
0.67,2.57
0.67,2.58
0.68,2.58
0.67,2.56
0.67,2.54
0.68,2.52
0.67,2.50
0.66,2.48
0.67,2.47
0.67,2.46
0.66,2.46
0.67,2.46
0.68,2.47
0.66,2.45
0.67,2.44
0.68,2.45
0.67,2.46
0.66,2.46
0.67,2.47
0.67,2.47
0.66,2.48
0.67,2.47
0.67,2.46
0.66,2.45
0.67,2.43
0.67,2.43
0.66,2.43
0.67,2.43
0.67,2.42
0.66,2.35
0.66,2.39
0.68,2.43
0.66,2.45
0.66,2.45
0.67,2.45
0.67,2.45
0.66,2.44
0.67,2.45
0.67,2.45
0.66,2.46
0.67,2.46
0.67,2.45
0.66,2.43
0.67,2.42
0.67,2.42
0.66,2.41
0.66,2.43
0.67,2.44
0.66,2.44
0.66,2.44
0.66,2.44
0.66,2.44
0.66,2.44
0.67,2.45
0.67,2.45
0.66,2.47
0.67,2.49
0.66,2.52
0.66,2.54
0.67,2.55
0.67,2.56
0.66,2.56
0.66,2.55
0.67,2.54
0.66,2.44
0.66,2.46
0.67,2.48
0.66,2.49
0.66,2.49
0.67,2.51
0.66,2.51
0.66,2.52
0.67,2.51
0.66,2.50
0.66,2.48
0.66,2.48
0.67,2.47
0.66,2.46
0.66,2.47
0.67,2.46
0.66,2.45
0.66,2.45
0.67,2.45
0.66,2.45
0.66,2.47
0.67,2.48
0.66,2.49
0.66,2.49
0.67,2.49
0.67,2.48
0.66,2.48
0.66,2.46
0.67,2.45
0.66,2.45
0.66,2.45
0.67,2.45
0.66,2.45
0.66,2.44
0.67,2.43
0.66,2.37
0.66,2.35
0.67,2.38
0.66,2.39
0.66,2.40
0.67,2.42
0.67,2.43
0.66,2.42
0.66,2.43
0.66,2.43
0.66,2.44
0.66,2.44
0.67,2.43
0.66,2.43
0.66,2.44
0.67,2.44
0.66,2.45
0.66,2.45
0.67,2.45
0.66,2.45
0.66,2.47
0.67,2.49
0.67,2.49
0.66,2.51
0.66,2.52
0.67,2.53
0.66,2.55
0.66,2.57
0.67,2.57
0.65,2.57
0.66,2.57
0.67,2.55
0.66,2.54
0.66,2.54
0.67,2.54
0.65,2.47
0.66,2.47
0.67,2.50
0.66,2.51
0.66,2.51
0.67,2.52
0.66,2.51
0.66,2.51
0.67,2.51
0.67,2.52
0.66,2.51
0.66,2.50
0.67,2.48
0.66,2.47
0.66,2.46
0.67,2.45
0.66,2.45
0.66,2.45
0.67,2.45
0.66,2.45
0.66,2.45
0.67,2.46
0.66,2.46
0.65,2.46
0.67,2.46
0.67,2.46
0.65,2.46
0.66,2.47
0.67,2.47
0.66,2.47
0.66,2.46
0.67,2.46
0.66,2.44
0.66,2.43
0.67,2.44
0.66,2.44
0.66,2.38
0.67,2.41
0.67,2.44
0.65,2.45
0.67,2.45
0.67,2.44
0.66,2.43
0.66,2.41
0.67,2.40
0.66,2.40
0.66,2.39
0.67,2.39
0.66,2.42
0.66,2.43
0.67,2.45
0.66,2.46
0.66,2.48
0.67,2.50
0.66,2.51
0.66,2.55
0.67,2.59
0.67,2.61
0.66,2.62
0.66,2.63
0.67,2.62
0.66,2.61
0.66,2.60
0.67,2.59
0.66,2.57
0.66,2.56
0.67,2.56
0.66,2.54
0.66,2.52
0.67,2.50
0.66,2.49
0.66,2.44
0.67,2.40
0.67,2.42
0.66,2.44
0.67,2.45
0.67,2.47
0.66,2.48
0.66,2.48
0.67,2.48
0.66,2.49
0.66,2.49
0.67,2.50
0.67,2.52
0.66,2.53
0.67,2.53
0.66,2.51
0.66,2.49
0.67,2.47
0.67,2.46
0.66,2.45
0.67,2.44
0.67,2.45
0.66,2.46
0.66,2.47
0.67,2.47
0.66,2.47
0.66,2.46
0.67,2.44
0.66,2.42
0.66,2.40
0.67,2.40
0.66,2.40
0.66,2.41
0.67,2.42
0.67,2.42
0.65,2.39
0.67,2.36
0.67,2.39
0.66,2.41
0.66,2.44
0.67,2.46
0.66,2.48
0.66,2.48
0.67,2.48
0.66,2.47
0.66,2.46
0.67,2.46
0.67,2.46
0.66,2.47
0.67,2.48
0.66,2.50
0.66,2.53
0.67,2.54
0.67,2.55
0.66,2.56
0.66,2.56
0.67,2.57
0.66,2.56
0.67,2.56
0.67,2.56
0.66,2.56
0.66,2.56
0.67,2.57
0.66,2.56
0.66,2.56
0.67,2.55
0.67,2.53
0.66,2.51
0.67,2.50
0.67,2.49
0.66,2.49
0.66,2.41
0.67,2.44
0.66,2.46
0.66,2.47
0.67,2.48
0.66,2.47
0.66,2.47
0.68,2.47
0.66,2.47
0.66,2.48
0.67,2.49
0.67,2.49
0.66,2.49
0.67,2.49
0.67,2.48
0.66,2.46
0.67,2.46
0.67,2.45
0.66,2.45
0.67,2.47
0.67,2.48
0.66,2.49
0.66,2.48
0.67,2.46
0.66,2.44
0.66,2.43
0.67,2.41
0.66,2.42
0.66,2.42
0.67,2.45
0.67,2.46
0.66,2.46
0.67,2.46
0.67,2.46
0.66,2.45
0.67,2.45
0.67,2.38
0.66,2.39
0.67,2.40
0.67,2.41
0.66,2.41
0.66,2.42
0.67,2.43
0.66,2.44
0.66,2.45
0.67,2.46
0.67,2.47
0.66,2.49
0.67,2.52
0.67,2.54
0.66,2.56
0.67,2.60
0.67,2.62
0.66,2.62
0.66,2.62
0.68,2.62
0.66,2.61
0.66,2.61
0.67,2.59
0.67,2.58
0.66,2.56
0.67,2.55
0.67,2.52
0.66,2.50
0.67,2.48
0.67,2.48
0.66,2.46
0.67,2.45
0.67,2.45
0.66,2.45
0.67,2.45
0.67,2.38
0.66,2.40
0.66,2.44
0.67,2.46
0.66,2.47
0.66,2.51
0.67,2.53
0.67,2.53
0.66,2.54
0.67,2.54
0.67,2.52
0.66,2.51
0.67,2.50
0.67,2.49
0.66,2.48
0.67,2.48
0.67,2.47
0.66,2.46
0.66,2.46
0.67,2.45
0.66,2.43
0.66,2.42
0.67,2.41
0.67,2.41
0.66,2.41
0.67,2.42
0.67,2.43
0.66,2.42
0.67,2.42
0.67,2.43
0.66,2.44
0.67,2.46
0.67,2.46
0.66,2.47
0.66,2.47
0.68,2.39
0.66,2.41
0.66,2.42
0.67,2.43
0.67,2.42
0.66,2.42
0.67,2.43
0.67,2.43
0.66,2.44
0.67,2.48
0.67,2.51
0.66,2.54
0.67,2.58
0.67,2.60
0.66,2.61
0.67,2.64
0.67,2.65
0.66,2.65
0.66,2.65
0.68,2.64
0.67,2.63
0.66,2.60
0.67,2.58
0.67,2.57
0.66,2.55
0.67,2.53
0.67,2.52
0.67,2.51
0.67,2.50
0.67,2.51
0.66,2.49
0.67,2.47
0.68,2.46
0.66,2.46
0.67,2.46
0.67,2.47
0.67,2.39
0.66,2.44
0.67,2.47
0.67,2.49
0.66,2.52
0.67,2.54
0.67,2.54
0.66,2.53
0.67,2.53
0.67,2.52
0.66,2.51
0.67,2.48
0.67,2.47
0.66,2.45
0.67,2.44
0.68,2.44
0.66,2.43
0.66,2.44
0.67,2.45
0.67,2.45
0.66,2.45
0.67,2.44
0.67,2.44
0.66,2.44
0.67,2.43
0.67,2.43
0.66,2.43
0.66,2.43
0.67,2.43
0.66,2.43
0.67,2.43
0.68,2.44
0.67,2.43
0.66,2.44
0.68,2.43
0.68,2.39
0.66,2.39
0.67,2.42
0.67,2.44
0.66,2.46
0.67,2.47
0.67,2.48
0.66,2.49
0.67,2.50
0.68,2.52
0.66,2.53
0.67,2.55
0.68,2.58
0.66,2.60
0.66,2.62
0.67,2.63
0.66,2.64
0.66,2.64
0.68,2.63
0.67,2.62
0.66,2.60
0.67,2.60
0.67,2.58
0.66,2.57
0.67,2.57
0.67,2.56
0.66,2.55
0.67,2.55
0.68,2.54
0.66,2.53
0.66,2.52
0.68,2.51
0.67,2.50
0.67,2.48
0.68,2.47
0.67,2.47
0.66,2.40
0.67,2.44
0.67,2.46
0.66,2.47
0.67,2.50
0.67,2.51
0.66,2.52
0.67,2.53
0.67,2.55
0.67,2.54
0.67,2.54
0.68,2.52
0.67,2.51
0.66,2.50
0.67,2.48
0.67,2.47
0.66,2.45
0.68,2.43
0.67,2.43
0.66,2.43
0.67,2.42
0.67,2.42
0.66,2.44
0.67,2.46
0.68,2.46
0.67,2.46
0.67,2.47
0.67,2.46
0.66,2.45
0.66,2.46
0.67,2.46
0.67,2.45
0.66,2.45
0.67,2.44
0.67,2.42
0.66,2.34
0.68,2.37
0.67,2.38
0.66,2.39
0.67,2.41
0.67,2.42
0.67,2.43
0.67,2.44
0.68,2.46
0.66,2.48
0.67,2.51
0.68,2.55
0.67,2.59
0.67,2.62
0.68,2.65
0.67,2.66
0.66,2.67
0.67,2.67
0.68,2.67
0.66,2.66
0.67,2.66
0.68,2.64
0.67,2.62
0.67,2.60
0.68,2.58
0.67,2.55
0.67,2.54
0.68,2.53
0.67,2.50
0.66,2.49
0.68,2.48
0.67,2.48
0.66,2.48
0.67,2.48
0.67,2.48
0.66,2.41
0.67,2.44
0.67,2.48
0.66,2.50
0.67,2.54
0.68,2.56
0.66,2.57
0.67,2.58
0.68,2.57
0.66,2.56
0.67,2.55
0.67,2.53
0.67,2.51
0.66,2.51
0.68,2.50
0.67,2.49
0.66,2.48
0.67,2.47
0.67,2.44
0.66,2.43
0.67,2.43
0.68,2.42
0.67,2.42
0.67,2.43
0.68,2.43
0.67,2.44
0.66,2.45
0.68,2.45
0.67,2.44
0.67,2.44
0.67,2.45
0.67,2.45
0.66,2.44
0.67,2.45
0.67,2.45
0.66,2.45
0.67,2.39
0.67,2.42
0.66,2.44
0.67,2.45
0.68,2.46
0.67,2.46
0.67,2.46
0.68,2.46
0.67,2.45
0.67,2.44
0.68,2.45
0.67,2.46
0.66,2.49
0.67,2.52
0.67,2.55
0.67,2.58
0.67,2.62
0.67,2.66
0.67,2.69
0.67,2.71
0.68,2.71
0.66,2.70
0.67,2.69
0.68,2.67
0.67,2.65
0.67,2.62
0.68,2.61
0.67,2.60
0.66,2.58
0.68,2.55
0.67,2.52
0.66,2.49
0.67,2.48
0.68,2.48
0.66,2.47
0.67,2.41
0.68,2.45
0.67,2.48
0.67,2.51
0.68,2.54
0.67,2.55
0.66,2.56
0.68,2.56
0.67,2.56
0.67,2.56
0.68,2.56
0.67,2.55
0.66,2.52
0.68,2.49
0.68,2.48
0.66,2.46
0.67,2.46
0.68,2.45
0.67,2.45
0.67,2.45
0.68,2.45
0.67,2.45
0.66,2.47
0.68,2.46
0.67,2.46
0.66,2.45
0.68,2.46
0.67,2.46
0.66,2.46
0.67,2.48
0.67,2.48
0.66,2.48
0.67,2.47
0.68,2.47
0.66,2.46
0.67,2.39
0.68,2.37
0.67,2.40
0.67,2.43
0.68,2.45
0.67,2.46
0.67,2.46
0.68,2.46
0.67,2.44
0.66,2.43
0.68,2.42
0.67,2.41
0.67,2.43
0.67,2.44
0.68,2.45
0.67,2.48
0.67,2.51
0.68,2.55
0.67,2.60
0.67,2.65
0.68,2.67
0.67,2.69
0.67,2.71
0.68,2.73
0.67,2.72
0.67,2.71
0.68,2.70
0.67,2.67
0.66,2.65
0.67,2.62
0.68,2.60
0.67,2.57
0.67,2.54
0.68,2.52
0.67,2.51
0.67,2.50
0.68,2.39
0.67,2.43
0.67,2.46
0.68,2.49
0.67,2.51
0.66,2.52
0.68,2.54
0.67,2.55
0.67,2.57
0.67,2.58
0.67,2.58
0.67,2.58
0.67,2.58
0.68,2.56
0.67,2.55
0.67,2.55
0.68,2.53
0.67,2.52
0.67,2.51
0.68,2.50
0.67,2.47
0.66,2.46
0.68,2.45
0.67,2.45
0.66,2.45
0.68,2.45
0.67,2.45
0.67,2.44
0.67,2.44
0.68,2.44
0.67,2.44
0.67,2.44
0.68,2.43
0.67,2.43
0.67,2.44
0.67,2.43
0.67,2.38
0.67,2.42
0.68,2.45
0.67,2.47
0.67,2.47
0.68,2.48
0.68,2.48
0.66,2.47
0.68,2.48
0.68,2.48
0.67,2.47
0.67,2.47
0.68,2.47
0.67,2.47
0.67,2.50
0.68,2.52
0.67,2.56
0.67,2.60
0.68,2.64
0.67,2.67
0.67,2.69
0.68,2.70
0.67,2.71
0.67,2.71
0.68,2.70
0.68,2.70
0.67,2.67
0.67,2.66
0.68,2.64
0.67,2.62
0.67,2.60
0.68,2.58
0.67,2.57
0.67,2.56
0.68,2.54
0.67,2.45
0.66,2.46
0.68,2.48
0.67,2.50
0.66,2.50
0.68,2.52
0.68,2.53
0.67,2.53
0.67,2.54
0.68,2.54
0.67,2.54
0.67,2.55
0.68,2.57
0.67,2.57
0.67,2.58
0.68,2.58
0.67,2.56
0.67,2.53
0.68,2.49
0.67,2.47
0.67,2.46
0.68,2.45
0.68,2.44
0.67,2.43
0.67,2.44
0.67,2.45
0.67,2.46
0.67,2.46
0.68,2.45
0.67,2.45
0.67,2.44
0.68,2.45
0.67,2.45
0.67,2.46
0.68,2.45
0.67,2.37
0.67,2.37
0.68,2.39
0.68,2.41
0.67,2.43
0.68,2.46
0.68,2.48
0.67,2.47
0.67,2.47
0.68,2.46
0.67,2.45
0.67,2.46
0.68,2.47
0.67,2.50
0.67,2.54
0.68,2.61
0.67,2.65
0.66,2.69
0.68,2.71
0.68,2.72
0.67,2.73
0.68,2.72
0.68,2.71
0.67,2.72
0.67,2.71
0.68,2.70
0.67,2.68
0.67,2.67
0.68,2.65
0.67,2.65
0.67,2.64
0.68,2.63
0.67,2.62
0.67,2.61
0.68,2.61
0.67,2.61
0.67,2.50
0.67,2.53
0.68,2.54
0.67,2.56
0.68,2.58
0.68,2.58
0.67,2.58
0.67,2.59
0.68,2.60
0.67,2.59
0.67,2.58
0.68,2.57
0.67,2.54
0.67,2.52
0.68,2.50
0.67,2.49
0.67,2.49
0.68,2.48
0.68,2.48
0.67,2.48
0.67,2.47
0.68,2.47
0.67,2.48
0.67,2.47
0.68,2.46
0.67,2.46
0.67,2.46
0.68,2.47
0.67,2.47
0.67,2.50
0.68,2.50
0.67,2.49
0.67,2.48
0.68,2.48
0.68,2.47
0.67,2.35
0.68,2.38
0.68,2.39
0.67,2.39
0.67,2.40
0.68,2.41
0.67,2.42
0.67,2.43
0.68,2.44
0.67,2.44
0.67,2.46
0.68,2.49
0.67,2.51
0.67,2.54
0.68,2.58
0.68,2.62
0.67,2.66
0.68,2.70
0.68,2.73
0.67,2.75
0.67,2.77
0.68,2.77
0.67,2.77
0.67,2.75
0.68,2.74
0.67,2.72
0.67,2.72
0.68,2.70
0.67,2.68
0.67,2.67
0.68,2.65
0.68,2.63
0.67,2.62
0.68,2.61
0.68,2.57
0.67,2.51
0.68,2.46
0.68,2.47
0.67,2.49
0.67,2.51
0.68,2.53
0.67,2.54
0.67,2.55
0.68,2.57
0.67,2.57
0.67,2.57
0.68,2.58
0.68,2.60
0.67,2.60
0.68,2.59
0.68,2.59
0.67,2.56
0.67,2.54
0.68,2.50
0.67,2.48
0.67,2.45
0.68,2.44
0.67,2.41
0.67,2.41
0.68,2.40
0.67,2.40
0.67,2.41
0.68,2.42
0.67,2.44
0.67,2.45
0.68,2.46
0.68,2.45
0.67,2.45
0.68,2.45
0.68,2.44
0.67,2.43
0.68,2.37
0.68,2.40
0.67,2.41
0.67,2.42
0.68,2.42
0.67,2.42
0.67,2.43
0.68,2.43
0.67,2.43
0.67,2.43
0.68,2.43
0.68,2.43
0.67,2.44
0.68,2.47
0.68,2.50
0.67,2.55
0.68,2.60
0.68,2.65
0.67,2.69
0.67,2.73
0.69,2.77
0.67,2.78
0.67,2.80
0.68,2.79
0.67,2.78
0.67,2.77
0.68,2.75
0.67,2.73
0.67,2.71
0.68,2.69
0.68,2.68
0.67,2.67
0.68,2.64
0.68,2.61
0.67,2.57
0.67,2.47
0.68,2.47
0.67,2.49
0.67,2.49
0.68,2.50
0.67,2.51
0.67,2.54
0.68,2.55
0.67,2.57
0.67,2.57
0.68,2.57
0.68,2.56
0.67,2.57
0.68,2.56
0.68,2.55
0.67,2.53
0.68,2.51
0.68,2.48
0.67,2.45
0.67,2.44
0.68,2.42
0.67,2.41
0.67,2.43
0.68,2.43
0.68,2.43
0.67,2.43
0.68,2.43
0.68,2.43
0.67,2.43
0.68,2.44
0.68,2.43
0.67,2.42
0.67,2.41
0.68,2.42
0.67,2.41
0.67,2.41
0.68,2.32
0.67,2.36
0.67,2.39
0.68,2.40
0.67,2.41
0.67,2.41
0.68,2.43
0.68,2.45
0.67,2.46
0.68,2.46
0.68,2.45
0.67,2.45
0.68,2.45
0.68,2.46
0.67,2.48
0.67,2.52
0.68,2.56
0.67,2.61
0.67,2.64
0.68,2.68
0.68,2.71
0.67,2.73
0.68,2.73
0.68,2.73
0.67,2.72
0.68,2.71
0.68,2.70
0.67,2.69
0.68,2.69
0.68,2.68
0.67,2.66
0.67,2.63
0.68,2.60
0.67,2.57
0.67,2.56
0.68,2.54
0.67,2.46
0.67,2.48
0.68,2.50
0.67,2.50
0.67,2.52
0.68,2.52
0.68,2.51
0.67,2.52
0.68,2.52
0.68,2.52
0.67,2.52
0.68,2.53
0.68,2.52
0.67,2.53
0.67,2.54
0.68,2.52
0.67,2.52
0.67,2.51
0.68,2.50
0.68,2.48
0.67,2.47
0.68,2.45
0.68,2.43
0.67,2.42
0.68,2.41
0.68,2.40
0.67,2.40
0.68,2.40
0.68,2.40
0.67,2.40
0.68,2.40
0.68,2.38
0.67,2.37
0.67,2.36
0.68,2.35
0.67,2.27
0.67,2.30
0.68,2.33
0.68,2.35
0.67,2.37
0.68,2.38
0.68,2.38
0.67,2.37
0.68,2.38
0.68,2.39
0.67,2.40
0.68,2.41
0.68,2.43
0.67,2.45
0.67,2.48
0.68,2.50
0.67,2.53
0.67,2.58
0.68,2.63
0.68,2.67
0.67,2.71
0.68,2.73
0.68,2.75
0.67,2.74
0.68,2.72
0.68,2.68
0.67,2.66
0.68,2.63
0.68,2.61
0.67,2.59
0.67,2.59
0.68,2.59
0.68,2.58
0.67,2.57
0.68,2.55
0.68,2.52
0.67,2.43
0.68,2.44
0.68,2.45
0.67,2.48
0.68,2.50
0.68,2.51
0.67,2.52
0.68,2.53
0.68,2.53
0.67,2.52
0.67,2.52
0.69,2.52
0.67,2.51
0.67,2.50
0.68,2.50
0.68,2.48
0.67,2.47
0.68,2.44
0.68,2.42
0.67,2.41
0.68,2.40
0.68,2.39
0.67,2.39
0.68,2.39
0.68,2.39
0.67,2.40
0.67,2.41
0.68,2.42
0.68,2.41
0.67,2.42
0.68,2.41
0.68,2.41
0.67,2.41
0.68,2.40
0.68,2.40
0.67,2.30
0.68,2.33
0.68,2.34
0.67,2.34
0.68,2.35
0.68,2.34
0.67,2.34
0.68,2.35
0.69,2.37
0.67,2.38
0.67,2.39
0.68,2.42
0.68,2.45
0.67,2.49
0.69,2.53
0.68,2.59
0.67,2.63
0.68,2.69
0.68,2.74
0.67,2.75
0.68,2.76
0.68,2.74
0.67,2.73
0.68,2.70
0.68,2.68
0.67,2.65
0.67,2.63
0.69,2.61
0.67,2.57
0.67,2.55
0.68,2.51
0.68,2.48
0.67,2.46
0.68,2.45
0.68,2.44
0.67,2.45
0.68,2.39
0.68,2.44
0.67,2.45
0.68,2.47
0.69,2.49
0.67,2.50
0.68,2.50
0.68,2.50
0.68,2.50
0.67,2.50
0.68,2.51
0.67,2.50
0.67,2.50
0.68,2.49
0.68,2.46
0.67,2.45
0.68,2.43
0.68,2.42
0.67,2.42
0.68,2.42
0.68,2.41
0.68,2.39
0.68,2.39
0.69,2.37
0.67,2.36
0.68,2.36
0.68,2.36
0.68,2.36
0.67,2.36
0.68,2.37
0.68,2.38
0.67,2.39
0.68,2.40
0.68,2.40
0.68,2.39
0.68,2.30
0.68,2.33
0.67,2.35
0.68,2.36
0.69,2.39
0.67,2.40
0.67,2.43
0.69,2.46
0.68,2.48
0.67,2.51
0.68,2.55
0.68,2.59
0.67,2.64
0.68,2.68
0.68,2.70
0.67,2.72
0.68,2.73
0.68,2.71
0.67,2.70
0.68,2.69
0.69,2.67
0.67,2.65
0.68,2.64
0.68,2.63
0.68,2.62
0.67,2.61
0.68,2.59
0.68,2.57
0.67,2.55
0.68,2.53
0.68,2.50
0.67,2.48
0.68,2.48
0.68,2.47
0.67,2.46
0.68,2.45
0.68,2.39
0.67,2.41
0.67,2.45
0.69,2.46
0.67,2.48
0.67,2.49
0.69,2.50
0.67,2.51
0.67,2.51
0.69,2.51
0.68,2.50
0.67,2.49
0.68,2.48
0.68,2.46
0.67,2.46
0.68,2.44
0.68,2.43
0.67,2.43
0.68,2.42
0.69,2.40
0.67,2.39
0.68,2.39
0.69,2.38
0.68,2.38
0.67,2.36
0.68,2.36
0.68,2.35
0.67,2.35
0.68,2.35
0.68,2.35
0.67,2.34
0.68,2.35
0.69,2.36
0.67,2.35
0.68,2.36
0.69,2.28
0.67,2.32
0.68,2.36
0.69,2.39
0.68,2.42
0.67,2.47
0.69,2.52
0.68,2.56
0.67,2.61
0.68,2.65
0.68,2.68
0.67,2.72
0.69,2.74
0.69,2.74
0.67,2.74
0.68,2.73
0.69,2.70
0.67,2.67
0.68,2.65
0.69,2.63
0.68,2.61
0.68,2.59
0.69,2.57
0.68,2.55
0.67,2.53
0.68,2.52
0.68,2.51
0.67,2.50
0.69,2.50
0.68,2.52
0.67,2.52
0.68,2.53
0.69,2.52
0.67,2.52
0.68,2.52
0.68,2.44
0.68,2.48
0.67,2.51
0.69,2.52
0.68,2.52
0.67,2.52
0.69,2.50
0.68,2.48
0.67,2.46
0.68,2.45
0.69,2.44
0.67,2.43
0.68,2.43
0.68,2.43
0.67,2.42
0.68,2.44
0.69,2.45
0.68,2.45
0.68,2.44
0.69,2.43
0.68,2.42
0.67,2.42
0.68,2.42
0.68,2.42
0.67,2.40
0.68,2.39
0.68,2.39
0.67,2.38
0.68,2.37
0.68,2.38
0.68,2.36
0.68,2.36
0.69,2.37
0.67,2.37
0.68,2.36
0.69,2.37
0.68,2.29
0.68,2.33
0.69,2.35
0.68,2.38
0.67,2.42
0.69,2.47
0.68,2.51
0.67,2.57
0.68,2.62
0.68,2.66
0.67,2.70
0.68,2.74
0.68,2.75
0.68,2.75
0.68,2.75
0.69,2.74
0.68,2.72
0.68,2.69
0.69,2.68
0.68,2.64
0.67,2.61
0.69,2.59
0.68,2.56
0.67,2.55
0.68,2.53
0.69,2.52
0.67,2.51
0.68,2.50
0.69,2.48
0.67,2.48
0.68,2.48
0.69,2.49
0.67,2.50
0.68,2.50
0.69,2.51
0.68,2.51
0.67,2.45
0.69,2.47
0.68,2.48
0.67,2.48
0.69,2.49
0.68,2.49
0.67,2.49
0.68,2.50
0.69,2.50
0.67,2.49
0.68,2.48
0.69,2.46
0.68,2.45
0.68,2.42
0.69,2.40
0.68,2.38
0.67,2.37
0.69,2.37
0.68,2.37
0.67,2.37
0.69,2.38
0.68,2.38
0.67,2.38
0.68,2.39
0.69,2.39
0.68,2.40
0.68,2.40
0.69,2.40
0.68,2.40
0.68,2.40
0.69,2.39
0.68,2.39
0.68,2.38
0.69,2.38
0.68,2.38
0.68,2.29
0.69,2.32
0.68,2.35
0.67,2.36
0.68,2.38
0.68,2.39
0.67,2.42
0.68,2.46
0.69,2.52
0.67,2.58
0.68,2.62
0.69,2.66
0.68,2.69
0.68,2.69
0.69,2.71
0.68,2.73
0.68,2.72
0.69,2.70
0.68,2.68
0.68,2.65
0.68,2.64
0.68,2.63
0.68,2.62
0.68,2.60
0.68,2.58
0.68,2.56
0.68,2.55
0.69,2.52
0.68,2.49
0.68,2.47
0.68,2.46
0.68,2.45
0.68,2.46
0.69,2.46
0.68,2.47
0.67,2.48
0.69,2.41
0.68,2.45
0.67,2.49
0.68,2.52
0.68,2.54
0.68,2.54
0.68,2.54
0.69,2.53
0.68,2.51
0.68,2.48
0.69,2.46
0.68,2.45
0.68,2.43
0.69,2.42
0.68,2.41
0.68,2.42
0.69,2.41
0.68,2.40
0.68,2.39
0.68,2.38
0.68,2.37
0.67,2.37
0.68,2.38
0.69,2.39
0.67,2.39
0.68,2.39
0.69,2.39
0.68,2.38
0.68,2.38
0.69,2.39
0.68,2.39
0.67,2.39
0.69,2.40
0.68,2.39
0.67,2.39
0.68,2.33
0.69,2.33
0.67,2.37
0.68,2.42
0.69,2.46
0.68,2.52
0.68,2.57
0.69,2.63
0.68,2.68
0.68,2.71
0.69,2.72
0.68,2.73
0.68,2.72
0.69,2.72
0.68,2.71
0.68,2.70
0.69,2.68
0.68,2.65
0.68,2.63
0.68,2.62
0.68,2.60
0.68,2.57
0.68,2.56
0.69,2.55
0.68,2.53
0.68,2.51
0.69,2.51
0.68,2.50
0.68,2.51
0.69,2.52
0.68,2.51
0.68,2.49
0.69,2.48
0.68,2.49
0.68,2.49
0.69,2.49
0.68,2.41
0.67,2.45
0.68,2.47
0.69,2.48
0.68,2.49
0.68,2.49
0.69,2.49
0.68,2.47
0.68,2.46
0.69,2.45
0.68,2.43
0.68,2.42
0.69,2.42
0.68,2.42
0.68,2.40
0.68,2.39
0.69,2.38
0.68,2.37
0.68,2.38
0.69,2.38
0.68,2.39
0.68,2.38
0.69,2.38
0.68,2.36
0.68,2.36
0.69,2.37
0.68,2.39
0.68,2.39
0.69,2.39
0.68,2.39
0.68,2.38
0.69,2.36
0.69,2.35
0.68,2.34
0.68,2.34
0.69,2.34
0.67,2.29
0.68,2.35
0.69,2.40
0.68,2.46
0.68,2.51
0.69,2.55
0.68,2.59
0.68,2.64
0.69,2.68
0.68,2.71
0.68,2.73
0.69,2.75
0.68,2.75
0.67,2.74
0.69,2.72
0.69,2.71
0.68,2.69
0.68,2.67
0.69,2.65
0.68,2.62
0.68,2.61
0.69,2.60
0.68,2.58
0.68,2.56
0.69,2.55
0.68,2.55
0.68,2.53
0.69,2.50
0.68,2.49
0.68,2.48
0.69,2.48
0.69,2.48
0.68,2.49
0.68,2.48
0.69,2.48
0.68,2.40
0.68,2.43
0.69,2.44
0.68,2.46
0.68,2.47
0.69,2.47
0.68,2.48
0.68,2.48
0.69,2.49
0.68,2.48
0.67,2.46
0.68,2.45
0.69,2.43
0.67,2.42
0.68,2.42
0.69,2.42
0.68,2.41
0.68,2.40
0.69,2.39
0.68,2.38
0.68,2.38
0.69,2.37
0.68,2.36
0.68,2.36
0.70,2.35
0.68,2.35
0.68,2.35
0.69,2.35
0.69,2.34
0.67,2.34
0.68,2.34
0.69,2.33
0.68,2.34
0.68,2.36
0.69,2.36
0.68,2.36
0.68,2.28
0.69,2.30
0.68,2.34
0.68,2.37
0.69,2.39
0.68,2.40
0.68,2.44
0.69,2.47
0.68,2.51
0.68,2.55
0.69,2.60
0.69,2.63
0.67,2.66
0.68,2.68
0.69,2.70
0.68,2.70
0.68,2.70
0.69,2.68
0.68,2.65
0.68,2.62
0.69,2.60
0.68,2.58
0.68,2.56
0.69,2.55
0.68,2.55
0.68,2.54
0.69,2.53
0.69,2.52
0.68,2.51
0.69,2.50
0.69,2.49
0.68,2.48
0.68,2.47
0.69,2.46
0.68,2.46
0.68,2.37
0.69,2.42
0.68,2.45
0.68,2.46
0.69,2.48
0.69,2.48
0.68,2.48
0.69,2.47
0.69,2.46
0.68,2.46
0.69,2.44
0.69,2.42
0.68,2.40
0.68,2.39
0.69,2.37
0.68,2.37
0.68,2.36
0.69,2.36
0.68,2.36
0.68,2.36
0.69,2.36
0.68,2.36
0.68,2.37
0.69,2.38
0.69,2.39
0.68,2.41
0.68,2.40
0.69,2.39
0.68,2.39
0.68,2.39
0.69,2.39
0.68,2.38
0.68,2.37
0.69,2.36
0.68,2.34
0.68,2.23
0.69,2.27
0.68,2.31
0.68,2.32
0.69,2.35
0.69,2.36
0.68,2.36
0.69,2.36
0.69,2.38
0.67,2.38
0.69,2.39
0.69,2.41
0.68,2.44
0.68,2.49
0.69,2.53
0.68,2.57
0.68,2.61
0.69,2.63
0.68,2.65
0.68,2.66
0.69,2.66
0.69,2.66
0.68,2.64
0.69,2.63
0.69,2.61
0.68,2.58
0.68,2.56
0.69,2.53
0.68,2.50
0.68,2.49
0.69,2.48
0.68,2.47
0.68,2.46
0.69,2.46
0.68,2.44
0.68,2.32
0.69,2.36
0.68,2.38
0.68,2.40
0.69,2.42
0.69,2.43
0.68,2.44
0.69,2.46
0.69,2.47
0.68,2.47
0.68,2.47
0.69,2.47
0.68,2.47
0.68,2.46
0.69,2.45
0.68,2.43
0.68,2.43
0.69,2.42
0.68,2.40
0.68,2.39
0.69,2.38
0.69,2.37
0.68,2.36
0.69,2.36
0.69,2.36
0.68,2.36
0.69,2.37
0.69,2.37
0.68,2.36
0.68,2.36
0.69,2.36
0.68,2.35
0.68,2.34
0.69,2.35
0.69,2.35
0.68,2.35
0.69,2.28
0.69,2.31
0.68,2.33
0.69,2.35
0.69,2.35
0.68,2.36
0.69,2.36
0.69,2.36
0.68,2.36
0.68,2.36
0.69,2.35
0.68,2.35
0.68,2.37
0.69,2.39
0.68,2.42
0.68,2.46
0.69,2.50
0.69,2.53
0.68,2.57
0.69,2.60
0.68,2.61
0.68,2.61
0.69,2.61
0.69,2.59
0.68,2.57
0.68,2.55
0.69,2.52
0.68,2.50
0.68,2.49
0.69,2.48
0.68,2.47
0.68,2.45
0.69,2.44
0.69,2.43
0.68,2.42
0.69,2.42
0.69,2.35
0.68,2.38
0.69,2.40
0.69,2.42
0.68,2.43
0.68,2.43
0.69,2.43
0.68,2.43
0.68,2.43
0.69,2.43
0.68,2.43
0.68,2.43
0.69,2.43
0.68,2.42
0.68,2.42
0.69,2.41
0.69,2.39
0.68,2.37
0.69,2.37
0.69,2.38
0.68,2.38
0.69,2.38
0.69,2.38
0.68,2.39
0.68,2.39
0.69,2.39
0.68,2.38
0.68,2.38
0.69,2.38
0.68,2.39
0.68,2.39
0.69,2.38
0.69,2.38
0.68,2.36
0.69,2.35
0.69,2.26
0.68,2.29
0.69,2.31
0.69,2.33
0.68,2.34
0.68,2.36
0.69,2.37
0.68,2.38
0.68,2.40
0.69,2.41
0.68,2.42
0.68,2.44
0.69,2.47
0.69,2.49
0.68,2.52
0.69,2.56
0.69,2.57
0.68,2.57
0.69,2.58
0.69,2.57
0.68,2.56
0.68,2.55
0.69,2.53
0.68,2.51
0.68,2.50
0.69,2.50
0.68,2.49
0.68,2.49
0.69,2.48
0.69,2.47
0.68,2.46
0.69,2.45
0.69,2.44
0.68,2.44
0.69,2.43
0.69,2.36
0.68,2.39
0.68,2.43
0.69,2.43
0.68,2.43
0.68,2.43
0.69,2.43
0.68,2.42
0.68,2.42
0.69,2.42
0.69,2.42
0.68,2.42
0.69,2.42
0.69,2.42
0.68,2.42
0.69,2.42
0.69,2.42
0.68,2.42
0.68,2.42
0.69,2.41
0.68,2.40
0.69,2.39
0.69,2.39
0.68,2.39
0.68,2.38
0.69,2.36
0.68,2.37
0.68,2.35
0.69,2.35
0.69,2.35
0.68,2.35
0.69,2.36
0.69,2.37
0.68,2.37
0.69,2.37
0.69,2.37
0.68,2.30
0.69,2.33
0.69,2.36
0.68,2.37
0.68,2.39
0.69,2.40
0.68,2.41
0.68,2.42
0.69,2.43
0.69,2.44
0.68,2.45
0.69,2.47
0.69,2.49
0.68,2.50
0.69,2.53
0.69,2.56
0.68,2.58
0.68,2.58
0.70,2.57
0.68,2.56
0.68,2.54
0.69,2.52
0.68,2.51
0.68,2.51
0.69,2.51
0.68,2.50
0.68,2.49
0.69,2.49
0.69,2.48
0.68,2.48
0.69,2.47
0.69,2.46
0.68,2.46
0.69,2.44
0.69,2.43
0.68,2.34
0.68,2.39
0.69,2.41
0.68,2.43
0.68,2.45
0.69,2.46
0.68,2.46
0.68,2.46
0.69,2.45
0.69,2.43
0.68,2.42
0.69,2.42
0.69,2.42
0.68,2.40
0.69,2.40
0.69,2.40
0.68,2.40
0.68,2.41
0.69,2.43
0.68,2.42
0.68,2.42
0.69,2.41
0.69,2.41
0.68,2.40
0.69,2.40
0.69,2.40
0.68,2.41
0.69,2.41
0.69,2.41
0.68,2.40
0.69,2.38
0.69,2.37
0.68,2.35
0.69,2.35
0.69,2.36
0.68,2.27
0.68,2.32
0.69,2.35
0.68,2.37
0.68,2.38
0.70,2.40
0.69,2.40
0.68,2.40
0.69,2.41
0.69,2.42
0.68,2.43
0.69,2.45
0.69,2.49
0.68,2.51
0.69,2.53
0.69,2.55
0.68,2.57
0.69,2.58
0.69,2.58
0.69,2.59
0.68,2.58
0.69,2.57
0.69,2.56
0.68,2.53
0.69,2.49
0.69,2.47
0.68,2.47
0.69,2.47
0.69,2.46
0.68,2.47
0.69,2.46
0.69,2.46
0.68,2.46
0.69,2.47
0.69,2.46
0.68,2.38
0.68,2.41
0.69,2.44
0.68,2.46
0.68,2.47
0.69,2.48
0.69,2.48
0.68,2.48
0.69,2.47
0.69,2.45
0.68,2.43
0.69,2.43
0.69,2.43
0.68,2.43
0.69,2.44
0.70,2.44
0.68,2.43
0.68,2.42
0.69,2.41
0.68,2.41
0.68,2.41
0.69,2.41
0.69,2.43
0.68,2.44
0.69,2.44
0.69,2.43
0.68,2.43
0.69,2.43
0.69,2.42
0.68,2.42
0.69,2.42
0.70,2.42
0.68,2.41
0.69,2.40
0.69,2.38
0.69,2.35
0.68,2.28
0.70,2.33
0.69,2.36
0.68,2.37
0.69,2.40
0.69,2.41
0.68,2.42
0.69,2.42
0.69,2.43
0.68,2.43
0.69,2.45
0.69,2.47
0.68,2.48
0.69,2.49
0.69,2.52
0.68,2.53
0.68,2.55
0.69,2.56
0.69,2.58
0.68,2.58
0.70,2.58
0.69,2.57
0.68,2.57
0.69,2.54
0.69,2.52
0.68,2.51
0.69,2.49
0.69,2.48
0.68,2.47
0.68,2.47
0.70,2.47
0.68,2.46
0.69,2.45
0.70,2.47
0.69,2.47
0.68,2.38
0.69,2.42
0.69,2.45
0.68,2.46
0.69,2.46
0.69,2.46
0.68,2.47
0.69,2.47
0.70,2.47
0.68,2.47
0.69,2.47
0.69,2.46
0.68,2.46
0.69,2.46
0.69,2.45
0.69,2.45
0.68,2.45
0.69,2.45
0.69,2.44
0.68,2.44
0.69,2.44
0.69,2.44
0.68,2.45
0.69,2.44
0.69,2.44
0.68,2.44
0.68,2.44
0.69,2.44
0.68,2.44
0.69,2.44
0.69,2.43
0.69,2.42
0.68,2.40
0.69,2.39
0.69,2.38
0.68,2.31
0.69,2.35
0.69,2.38
0.68,2.42
0.69,2.43
0.69,2.43
0.68,2.43
0.69,2.43
0.70,2.43
0.68,2.42
0.69,2.42
0.70,2.42
0.69,2.42
0.68,2.44
0.69,2.46
0.69,2.48
0.68,2.49
0.69,2.51
0.69,2.53
0.68,2.54
0.70,2.56
0.69,2.56
0.68,2.56
0.69,2.55
0.69,2.52
0.69,2.49
0.68,2.47
0.70,2.46
0.69,2.44
0.68,2.43
0.70,2.43
0.69,2.42
0.68,2.42
0.70,2.43
0.69,2.42
0.68,2.42
0.69,2.35
0.69,2.39
0.68,2.41
0.69,2.44
0.70,2.45
0.68,2.45
0.69,2.47
0.69,2.46
0.68,2.47
0.68,2.47
0.70,2.46
0.69,2.45
0.68,2.46
0.69,2.45
0.69,2.43
0.68,2.43
0.70,2.41
0.69,2.40
0.68,2.39
0.69,2.39
0.69,2.40
0.68,2.40
0.69,2.41
0.70,2.42
0.69,2.44
0.68,2.47
0.69,2.49
0.69,2.50
0.68,2.49
0.70,2.47
0.69,2.46
0.68,2.45
0.70,2.43
0.69,2.43
0.68,2.44
0.69,2.37
0.69,2.39
0.68,2.41
0.69,2.43
0.70,2.43
0.68,2.44
0.69,2.45
0.69,2.44
0.68,2.44
0.69,2.46
0.70,2.46
0.69,2.47
0.68,2.49
0.70,2.49
0.69,2.50
0.68,2.52
0.69,2.54
0.69,2.55
0.68,2.57
0.69,2.59
0.70,2.58
0.69,2.58
0.69,2.56
0.69,2.55
0.69,2.54
0.68,2.53
0.70,2.53
0.69,2.52
0.68,2.52
0.70,2.52
0.69,2.51
0.68,2.49
0.69,2.49
0.69,2.48
0.69,2.48
0.69,2.40
0.70,2.43
0.68,2.45
0.69,2.47
0.70,2.47
0.68,2.48
0.69,2.48
0.69,2.48
0.69,2.48
0.69,2.49
0.70,2.49
0.69,2.49
0.68,2.49
0.70,2.49
0.70,2.48
0.68,2.48
0.69,2.48
0.69,2.47
0.68,2.46
0.69,2.46
0.70,2.46
0.68,2.46
0.69,2.46
0.70,2.46
0.69,2.45
0.69,2.45
0.70,2.45
0.69,2.44
0.68,2.42
0.70,2.41
0.69,2.41
0.68,2.41
0.69,2.42
0.69,2.42
0.68,2.42
0.69,2.42
0.70,2.36
0.68,2.40
0.69,2.44
0.70,2.47
0.69,2.49
0.69,2.51
0.69,2.53
0.69,2.54
0.68,2.56
0.69,2.58
0.69,2.60
0.68,2.61
0.70,2.62
0.69,2.62
0.68,2.62
0.69,2.63
0.70,2.62
0.69,2.61
0.69,2.61
0.70,2.60
0.68,2.58
0.69,2.57
0.70,2.56
0.69,2.55
0.68,2.53
0.70,2.52
0.69,2.53
0.68,2.52
0.69,2.51
0.69,2.51
0.68,2.50
0.69,2.49
0.69,2.49
0.68,2.50
0.69,2.51
0.70,2.43
0.69,2.46
0.69,2.48
0.70,2.50
0.69,2.51
0.69,2.52
0.70,2.54
0.69,2.55
0.68,2.55
0.69,2.54
0.69,2.52
0.68,2.51
0.69,2.51
0.69,2.49
0.68,2.48
0.69,2.48
0.70,2.47
0.68,2.47
0.69,2.46
0.70,2.46
0.68,2.45
0.69,2.43
0.70,2.42
0.69,2.41
0.68,2.41
0.70,2.41
0.69,2.42
0.68,2.43
0.69,2.42
0.69,2.42
0.68,2.43
0.69,2.43
0.70,2.43
0.68,2.44
0.69,2.44
0.70,2.36
0.69,2.39
0.69,2.42
0.70,2.46
0.69,2.50
0.68,2.54
0.70,2.59
0.69,2.61
0.68,2.65
0.70,2.67
0.69,2.68
0.68,2.69
0.69,2.70
0.69,2.70
0.68,2.68
0.69,2.66
0.70,2.65
0.69,2.63
0.69,2.62
0.70,2.62
0.69,2.60
0.68,2.60
0.70,2.59
0.69,2.58
0.68,2.57
0.70,2.55
0.69,2.53
0.68,2.52
0.70,2.53
0.70,2.52
0.68,2.53
0.69,2.53
0.70,2.53
0.68,2.52
0.69,2.53
0.69,2.47
0.69,2.46
0.68,2.51
0.70,2.53
0.69,2.54
0.68,2.54
0.70,2.53
0.69,2.51
0.68,2.50
0.69,2.49
0.69,2.49
0.68,2.47
0.69,2.47
0.70,2.47
0.68,2.46
0.69,2.48
0.70,2.47
0.69,2.48
0.69,2.47
0.70,2.46
0.69,2.46
0.68,2.46
0.70,2.47
0.69,2.47
0.68,2.46
0.69,2.47
0.70,2.46
0.68,2.44
0.69,2.45
0.69,2.44
0.68,2.44
0.69,2.44
0.70,2.44
0.69,2.43
0.69,2.43
0.70,2.41
0.69,2.34
0.68,2.38
0.70,2.42
0.69,2.47
0.69,2.52
0.69,2.57
0.69,2.61
0.69,2.64
0.69,2.68
0.70,2.70
0.68,2.72
0.69,2.72
0.70,2.72
0.69,2.70
0.69,2.69
0.70,2.70
0.69,2.69
0.68,2.69
0.70,2.67
0.69,2.65
0.69,2.64
0.70,2.62
0.69,2.61
0.68,2.61
0.70,2.59
0.70,2.57
0.68,2.54
0.69,2.53
0.70,2.51
0.68,2.50
0.69,2.50
0.70,2.50
0.69,2.49
0.69,2.51
0.70,2.53
0.69,2.48
0.69,2.48
0.70,2.53
0.69,2.55
0.68,2.56
0.69,2.57
0.69,2.57
0.69,2.56
0.69,2.55
0.70,2.54
0.69,2.51
0.69,2.48
0.70,2.46
0.69,2.45
0.69,2.44
0.70,2.44
0.69,2.43
0.69,2.42
0.70,2.42
0.69,2.43
0.69,2.45
0.69,2.45
0.70,2.45
0.69,2.45
0.69,2.45
0.70,2.45
0.69,2.45
0.69,2.46
0.70,2.46
0.69,2.45
0.69,2.44
0.70,2.43
0.69,2.42
0.68,2.40
0.70,2.39
0.69,2.37
0.68,2.32
0.70,2.35
0.69,2.38
0.69,2.42
0.69,2.45
0.69,2.48
0.69,2.51
0.69,2.55
0.69,2.59
0.69,2.62
0.69,2.67
0.70,2.71
0.69,2.74
0.69,2.75
0.69,2.75
0.69,2.75
0.68,2.73
0.70,2.71
0.69,2.68
0.68,2.65
0.70,2.63
0.69,2.63
0.68,2.61
0.69,2.61
0.70,2.59
0.69,2.57
0.69,2.55
0.70,2.52
0.69,2.51
0.69,2.50
0.70,2.51
0.69,2.50
0.69,2.50
0.70,2.51
0.69,2.51
0.68,2.43
0.70,2.46
0.70,2.50
0.68,2.52
0.69,2.54
0.69,2.55
0.69,2.55
0.69,2.53
0.70,2.52
0.69,2.51
0.69,2.49
0.70,2.48
0.69,2.47
0.69,2.46
0.70,2.46
0.69,2.46
0.68,2.45
0.69,2.44
0.69,2.43
0.69,2.43
0.69,2.42
0.70,2.41
0.69,2.41
0.69,2.42
0.70,2.42
0.69,2.42
0.69,2.41
0.70,2.41
0.69,2.40
0.69,2.39
0.70,2.40
0.69,2.40
0.69,2.40
0.69,2.41
0.70,2.41
0.69,2.32
0.69,2.35
0.70,2.37
0.69,2.38
0.69,2.39
0.70,2.40
0.69,2.42
0.69,2.44
0.70,2.47
0.69,2.50
0.69,2.53
0.70,2.56
0.69,2.61
0.69,2.64
0.70,2.67
0.70,2.69
0.69,2.69
0.69,2.70
0.70,2.70
0.68,2.69
0.69,2.68
0.70,2.65
0.69,2.63
0.69,2.61
0.70,2.59
0.69,2.57
0.69,2.54
0.70,2.51
0.69,2.48
0.68,2.47
0.71,2.47
0.69,2.46
0.68,2.47
0.70,2.48
0.70,2.49
0.69,2.50
0.69,2.43
0.70,2.46
0.69,2.47
0.69,2.48
0.70,2.49
0.69,2.50
0.69,2.50
0.70,2.51
0.69,2.51
0.69,2.51
0.70,2.51
0.69,2.50
0.69,2.48
0.70,2.46
0.70,2.44
0.69,2.43
0.69,2.42
0.70,2.41
0.69,2.42
0.69,2.42
0.70,2.42
0.69,2.42
0.69,2.41
0.70,2.40
0.69,2.39
0.69,2.39
0.70,2.39
0.69,2.39
0.69,2.39
0.70,2.39
0.70,2.40
0.69,2.39
0.70,2.38
0.70,2.38
0.69,2.38
0.69,2.28
0.70,2.32
0.69,2.36
0.69,2.38
0.70,2.39
0.69,2.41
0.69,2.42
0.70,2.43
0.69,2.45
0.69,2.48
0.70,2.51
0.70,2.54
0.69,2.59
0.70,2.62
0.70,2.63
0.69,2.63
0.69,2.63
0.70,2.63
0.69,2.61
0.69,2.61
0.70,2.59
0.69,2.57
0.69,2.55
0.70,2.53
0.69,2.51
0.69,2.49
0.70,2.47
0.70,2.45
0.69,2.43
0.69,2.42
0.70,2.42
0.69,2.43
0.70,2.43
0.70,2.43
0.69,2.44
0.69,2.44
0.70,2.36
0.69,2.40
0.69,2.42
0.70,2.44
0.69,2.45
0.69,2.46
0.70,2.46
0.70,2.45
0.69,2.45
0.70,2.43
0.70,2.42
0.69,2.40
0.70,2.40
0.70,2.39
0.69,2.39
0.69,2.39
0.70,2.39
0.69,2.39
0.69,2.39
0.70,2.40
0.69,2.40
0.69,2.40
0.70,2.40
0.69,2.40
0.69,2.39
0.70,2.39
0.70,2.39
0.69,2.38
0.70,2.37
0.70,2.37
0.69,2.36
0.69,2.36
0.70,2.36
0.69,2.36
0.69,2.37
0.70,2.37
0.69,2.32
0.69,2.36
0.70,2.39
0.69,2.41
0.68,2.45
0.70,2.48
0.70,2.51
0.69,2.54
0.70,2.59
0.70,2.61
0.68,2.61
0.69,2.61
0.70,2.59
0.69,2.57
0.69,2.55
0.70,2.52
0.69,2.50
0.69,2.48
0.70,2.48
0.69,2.46
0.69,2.46
0.70,2.45
0.69,2.43
0.69,2.42
0.70,2.41
0.70,2.41
0.69,2.39
0.70,2.39
0.70,2.39
0.69,2.39
0.69,2.39
0.71,2.40
0.69,2.42
0.69,2.43
0.70,2.43
0.69,2.36
0.69,2.40
0.70,2.42
0.69,2.42
0.69,2.42
0.70,2.42
0.69,2.41
0.69,2.39
0.69,2.39
0.70,2.38
0.69,2.37
0.69,2.37
0.70,2.38
0.69,2.37
0.69,2.38
0.70,2.38
0.69,2.37
0.69,2.37
0.70,2.36
0.69,2.37
0.69,2.38
0.70,2.37
0.69,2.36
0.69,2.35
0.70,2.34
0.70,2.33
0.69,2.34
0.70,2.36
0.70,2.36
0.69,2.36
0.69,2.36
0.70,2.37
0.69,2.37
0.69,2.39
0.70,2.41
0.69,2.36
0.69,2.42
0.70,2.46
0.69,2.50
0.69,2.52
0.70,2.54
0.70,2.56
0.69,2.56
0.70,2.56
0.70,2.53
0.68,2.51
0.69,2.48
0.70,2.46
0.69,2.44
0.69,2.43
0.70,2.42
0.69,2.41
0.69,2.40
0.70,2.39
0.70,2.38
0.69,2.36
0.70,2.36
0.70,2.36
0.69,2.37
0.70,2.38
0.70,2.39
0.69,2.39
0.69,2.40
0.70,2.40
0.69,2.40
0.69,2.42
0.70,2.42
0.69,2.42
0.69,2.42
0.70,2.43
0.69,2.42
0.69,2.33
0.70,2.38
0.70,2.39
0.69,2.40
0.70,2.41
0.70,2.40
0.69,2.40
0.69,2.40
0.70,2.40
0.69,2.40
0.69,2.39
0.70,2.40
0.69,2.38
0.69,2.37
0.70,2.37
0.69,2.36
0.69,2.36
0.70,2.37
0.70,2.37
0.69,2.37
0.70,2.38
0.70,2.39
0.69,2.39
0.70,2.38
0.70,2.38
0.69,2.37
0.69,2.38
0.70,2.38
0.69,2.39
0.69,2.40
0.70,2.40
0.69,2.41
0.69,2.42
0.70,2.44
0.70,2.44
0.69,2.36
0.70,2.39
0.70,2.42
0.69,2.44
0.70,2.46
0.70,2.46
0.69,2.46
0.69,2.46
0.70,2.46
0.69,2.44
0.69,2.44
0.70,2.44
0.69,2.44
0.69,2.44
0.70,2.44
0.70,2.43
0.69,2.42
0.70,2.41
0.70,2.41
0.69,2.41
0.70,2.41
0.70,2.40
0.69,2.39
0.69,2.39
0.70,2.37
0.69,2.38
0.69,2.38
0.70,2.39
0.69,2.39
0.69,2.39
0.70,2.40
0.70,2.40
0.69,2.40
0.70,2.41
0.70,2.42
0.69,2.39
0.70,2.36
0.70,2.40
0.69,2.42
0.70,2.43
0.70,2.43
0.69,2.42
0.69,2.41
0.70,2.41
0.69,2.39
0.69,2.39
0.70,2.37
0.70,2.36
0.69,2.36
0.70,2.37
0.70,2.37
0.69,2.39
0.70,2.39
0.70,2.39
0.69,2.40
0.70,2.41
0.70,2.41
0.69,2.42
0.69,2.42
0.70,2.42
0.69,2.41
0.69,2.41
0.70,2.40
0.69,2.40
0.69,2.39
0.70,2.39
0.70,2.39
0.69,2.39
0.70,2.41
0.70,2.41
0.69,2.42
0.69,2.35
0.70,2.39
0.69,2.42
0.70,2.45
0.70,2.46
0.69,2.46
0.69,2.47
0.70,2.47
0.69,2.46
0.69,2.45
0.70,2.44
0.70,2.43
0.69,2.43
0.70,2.42
0.70,2.41
0.69,2.40
0.70,2.39
0.70,2.39
0.69,2.40
0.70,2.41
0.70,2.42
0.69,2.42
0.69,2.43
0.71,2.42
0.69,2.44
0.69,2.44
0.70,2.44
0.70,2.44
0.69,2.41
0.70,2.40
0.70,2.39
0.69,2.38
0.70,2.38
0.70,2.39
0.69,2.41
0.70,2.42
0.70,2.38
0.69,2.41
0.69,2.43
0.70,2.44
0.69,2.45
0.69,2.45
0.70,2.44
0.69,2.42
0.69,2.40
0.70,2.39
0.70,2.39
0.69,2.39
0.70,2.40
0.70,2.41
0.69,2.40
0.70,2.40
0.70,2.39
0.70,2.39
0.70,2.40
0.70,2.41
0.69,2.43
0.69,2.44
0.71,2.45
0.70,2.44
0.69,2.43
0.70,2.43
0.70,2.43
0.69,2.42
0.70,2.43
0.70,2.43
0.69,2.43
0.70,2.44
0.70,2.44
0.69,2.44
0.69,2.44
0.70,2.36
0.69,2.39
0.69,2.41
0.70,2.44
0.69,2.47
0.69,2.49
0.70,2.50
0.70,2.49
0.69,2.49
0.70,2.47
0.70,2.44
0.69,2.43
0.70,2.42
0.70,2.40
0.69,2.40
0.70,2.41
0.70,2.42
0.69,2.41
0.69,2.41
0.70,2.42
0.69,2.42
0.69,2.43
0.70,2.44
0.70,2.45
0.69,2.46
0.70,2.46
0.70,2.46
0.69,2.46
0.70,2.44
0.70,2.44
0.69,2.43
0.70,2.43
0.70,2.44
0.69,2.44
0.69,2.42
0.70,2.33
0.70,2.35
0.69,2.37
0.70,2.39
0.69,2.41
0.69,2.41
0.70,2.42
0.70,2.43
0.69,2.44
0.70,2.46
0.70,2.47
0.69,2.46
0.70,2.46
0.70,2.44
0.69,2.43
0.69,2.42
0.71,2.42
0.69,2.42
0.69,2.43
0.70,2.45
0.70,2.46
0.69,2.46
0.70,2.45
0.70,2.45
0.69,2.45
0.70,2.45
0.70,2.45
0.69,2.45
0.70,2.45
0.70,2.46
0.69,2.48
0.70,2.49
0.71,2.50
0.69,2.50
0.69,2.50
0.70,2.50
0.70,2.42
0.69,2.47
0.70,2.49
0.70,2.49
0.69,2.49
0.70,2.48
0.70,2.46
0.69,2.45
0.70,2.45
0.70,2.44
0.69,2.43
0.70,2.44
0.70,2.45
0.69,2.45
0.70,2.45
0.70,2.45
0.69,2.44
0.69,2.43
0.70,2.43
0.69,2.44
0.69,2.44
0.70,2.45
0.70,2.45
0.69,2.45
0.70,2.46
0.70,2.46
0.69,2.47
0.70,2.45
0.70,2.45
0.69,2.45
0.69,2.46
0.71,2.45
0.69,2.45
0.69,2.45
0.71,2.45
0.71,2.42
0.69,2.39
0.70,2.42
0.70,2.44
0.69,2.44
0.70,2.44
0.70,2.43
0.69,2.42
0.70,2.42
0.70,2.42
0.69,2.43
0.69,2.42
0.70,2.43
0.69,2.43
0.69,2.44
0.71,2.44
0.69,2.43
0.69,2.44
0.70,2.45
0.70,2.45
0.69,2.44
0.70,2.45
0.70,2.46
0.69,2.46
0.70,2.48
0.70,2.48
0.69,2.49
0.69,2.50
0.70,2.50
0.69,2.49
0.70,2.49
0.71,2.49
0.70,2.48
0.69,2.48
0.71,2.47
0.70,2.46
0.69,2.39
0.70,2.41
0.70,2.43
0.69,2.44
0.70,2.47
0.70,2.48
0.69,2.48
0.70,2.51
0.70,2.51
0.69,2.51
0.70,2.50
0.71,2.48
0.69,2.47
0.69,2.46
0.71,2.46
0.70,2.44
0.69,2.45
0.70,2.45
0.70,2.46
0.69,2.46
0.70,2.46
0.70,2.46
0.69,2.46
0.70,2.46
0.70,2.46
0.69,2.47
0.69,2.47
0.71,2.47
0.70,2.45
0.70,2.44
0.70,2.43
0.69,2.42
0.69,2.42
0.70,2.43
0.70,2.45
0.69,2.37
0.70,2.39
0.70,2.42
0.69,2.44
0.70,2.46
0.70,2.47
0.69,2.47
0.70,2.48
0.70,2.49
0.69,2.49
0.69,2.49
0.70,2.48
0.69,2.48
0.69,2.47
0.70,2.46
0.70,2.44
0.69,2.42
0.70,2.42
0.70,2.42
0.69,2.42
0.70,2.43
0.70,2.43
0.69,2.44
0.70,2.45
0.70,2.46
0.69,2.47
0.69,2.49
0.71,2.50
0.70,2.51
0.70,2.52
0.70,2.54
0.70,2.54
0.69,2.53
0.70,2.52
0.70,2.51
0.69,2.49
0.70,2.42
0.70,2.44
0.69,2.45
0.70,2.46
0.70,2.48
0.69,2.49
0.70,2.51
0.71,2.50
0.70,2.48
0.70,2.47
0.70,2.45
0.70,2.45
0.69,2.44
0.70,2.45
0.70,2.47
0.69,2.49
0.70,2.49
0.70,2.47
0.69,2.47
0.70,2.46
0.70,2.45
0.69,2.45
0.70,2.46
0.71,2.48
0.69,2.48
0.69,2.49
0.70,2.49
0.70,2.48
0.70,2.47
0.71,2.48
0.70,2.48
0.69,2.48
0.70,2.49
0.70,2.48
0.69,2.47
0.70,2.39
0.70,2.42
0.69,2.42
0.70,2.43
0.70,2.43
0.69,2.44
0.70,2.44
0.70,2.45
0.70,2.45
0.69,2.45
0.70,2.45
0.70,2.45
0.69,2.45
0.71,2.45
0.70,2.45
0.69,2.45
0.70,2.44
0.70,2.44
0.69,2.45
0.70,2.45
0.71,2.44
0.70,2.44
0.69,2.44
0.70,2.45
0.70,2.45
0.70,2.47
0.71,2.48
0.70,2.49
0.69,2.50
0.70,2.51
0.70,2.53
0.69,2.54
0.70,2.54
0.70,2.55
0.69,2.55
0.70,2.45
0.71,2.47
0.70,2.48
0.70,2.49
0.70,2.49
0.70,2.49
0.69,2.49
0.71,2.48
0.70,2.48
0.69,2.47
0.70,2.46
0.70,2.46
0.69,2.46
0.70,2.46
0.70,2.46
0.69,2.46
0.70,2.46
0.70,2.46
0.69,2.46
0.70,2.49
0.70,2.49
0.70,2.50
0.70,2.51
0.70,2.51
0.70,2.50
0.69,2.50
0.71,2.50
0.70,2.50
0.69,2.49
0.70,2.49
0.70,2.48
0.69,2.46
0.70,2.45
0.70,2.44
0.69,2.44
0.70,2.44
0.71,2.39
0.70,2.42
0.70,2.45
0.70,2.46
0.70,2.47
0.69,2.48
0.71,2.49
0.70,2.49
0.69,2.50
0.71,2.49
0.70,2.48
0.69,2.49
0.70,2.49
0.70,2.48
0.69,2.48
0.70,2.49
0.71,2.48
0.69,2.47
0.70,2.47
0.70,2.46
0.69,2.46
0.69,2.47
0.71,2.49
0.70,2.48
0.70,2.49
0.70,2.51
0.70,2.52
0.69,2.53
0.71,2.53
0.70,2.53
0.70,2.53
0.70,2.54
0.70,2.55
0.70,2.54
0.70,2.54
0.71,2.45
0.69,2.47
0.70,2.49
0.70,2.51
0.70,2.52
0.69,2.51
0.71,2.51
0.70,2.50
0.69,2.50
0.70,2.48
0.70,2.47
0.69,2.47
0.70,2.46
0.71,2.46
0.69,2.46
0.70,2.47
0.71,2.49
0.69,2.50
0.70,2.50
0.71,2.50
0.70,2.48
0.70,2.48
0.71,2.49
0.70,2.49
0.70,2.51
0.70,2.51
0.70,2.52
0.69,2.52
0.70,2.52
0.71,2.51
0.69,2.50
0.70,2.49
0.71,2.48
0.70,2.48
0.70,2.48
0.71,2.47
0.70,2.39
0.70,2.42
0.71,2.43
0.70,2.43
0.69,2.44
0.70,2.45
0.70,2.46
0.69,2.46
0.70,2.47
0.70,2.47
0.70,2.47
0.70,2.48
0.71,2.49
0.70,2.49
0.69,2.48
0.71,2.48
0.69,2.48
0.70,2.48
0.71,2.48
0.70,2.47
0.69,2.48
0.71,2.49
0.70,2.50
0.69,2.51
0.71,2.53
0.71,2.54
0.70,2.56
0.70,2.56
0.71,2.56
0.70,2.56
0.70,2.55
0.71,2.53
0.70,2.53
0.70,2.52
0.71,2.51
0.70,2.51
0.70,2.47
0.70,2.51
0.70,2.53
0.69,2.55
0.70,2.56
0.70,2.56
0.69,2.56
0.70,2.56
0.70,2.54
0.69,2.52
0.70,2.51
0.71,2.51
0.70,2.50
0.70,2.51
0.70,2.52
0.70,2.52
0.69,2.52
0.71,2.51
0.70,2.50
0.69,2.48
0.70,2.48
0.70,2.48
0.69,2.48
0.70,2.49
0.71,2.49
0.70,2.48
0.70,2.48
0.71,2.48
0.70,2.49
0.70,2.50
0.71,2.51
0.69,2.51
0.70,2.51
0.71,2.49
0.70,2.47
0.69,2.38
0.71,2.40
0.70,2.43
0.69,2.44
0.71,2.47
0.71,2.50
0.69,2.51
0.70,2.52
0.71,2.51
0.70,2.50
0.70,2.49
0.71,2.49
0.70,2.47
0.69,2.47
0.71,2.48
0.70,2.47
0.69,2.46
0.71,2.45
0.70,2.45
0.70,2.45
0.70,2.45
0.70,2.47
0.70,2.49
0.70,2.51
0.71,2.53
0.70,2.57
0.70,2.59
0.71,2.59
0.70,2.60
0.70,2.61
0.71,2.62
0.70,2.62
0.69,2.60
0.71,2.58
0.70,2.56
0.69,2.55
0.71,2.47
0.71,2.48
0.69,2.49
0.70,2.50
0.71,2.52
0.70,2.53
0.70,2.53
0.71,2.53
0.70,2.53
0.70,2.53
0.71,2.54
0.70,2.54
0.70,2.54
0.70,2.54
0.70,2.53
0.70,2.53
0.71,2.55
0.70,2.56
0.70,2.58
0.70,2.59
0.70,2.58
0.69,2.58
0.70,2.57
0.71,2.56
0.70,2.53
0.70,2.51
0.71,2.49
0.70,2.48
0.70,2.48
0.71,2.50
0.70,2.50
0.69,2.51
0.71,2.50
0.70,2.50
0.69,2.49
0.70,2.39
0.70,2.43
0.69,2.46
0.70,2.48
0.71,2.50
0.69,2.52
0.70,2.52
0.71,2.52
0.70,2.52
0.70,2.52
0.71,2.51
0.70,2.50
0.70,2.51
0.71,2.51
0.70,2.50
0.69,2.50
0.70,2.50
0.70,2.48
0.69,2.50
0.70,2.51
0.71,2.52
0.70,2.52
0.70,2.54
0.71,2.55
0.70,2.58
0.70,2.60
0.71,2.62
0.70,2.64
0.70,2.65
0.71,2.68
0.70,2.67
0.70,2.68
0.71,2.68
0.71,2.67
0.69,2.66
0.70,2.58
0.71,2.59
0.70,2.60
0.70,2.60
0.71,2.59
0.70,2.58
0.70,2.57
0.71,2.56
0.70,2.57
0.70,2.57
0.71,2.57
0.70,2.57
0.69,2.59
0.71,2.59
0.71,2.57
0.70,2.56
0.70,2.56
0.71,2.56
0.70,2.56
0.70,2.57
0.71,2.57
0.70,2.57
0.70,2.58
0.71,2.58
0.70,2.57
0.70,2.56
0.71,2.55
0.70,2.55
0.69,2.55
0.70,2.55
0.70,2.54
0.70,2.53
0.70,2.52
0.71,2.52
0.70,2.51
0.70,2.41
0.71,2.43
0.70,2.44
0.70,2.45
0.71,2.48
0.70,2.50
0.70,2.52
0.71,2.53
0.70,2.52
0.70,2.52
0.71,2.52
0.70,2.51
0.70,2.50
0.70,2.49
0.70,2.49
0.69,2.49
0.70,2.50
0.71,2.52
0.70,2.54
0.70,2.56
0.71,2.59
0.70,2.62
0.70,2.65
0.71,2.69
0.70,2.72
0.70,2.73
0.71,2.72
0.70,2.70
0.70,2.70
0.71,2.69
0.71,2.68
0.70,2.66
0.70,2.66
0.71,2.65
0.69,2.65
0.72,2.58
0.71,2.56
0.70,2.58
0.70,2.60
0.71,2.61
0.70,2.62
0.70,2.61
0.71,2.61
0.70,2.59
0.69,2.58
0.71,2.57
0.70,2.57
0.70,2.57
0.71,2.57
0.71,2.57
0.69,2.59
0.70,2.61
0.71,2.59
0.70,2.59
0.70,2.58
0.71,2.58
0.70,2.57
0.70,2.56
0.71,2.55
0.70,2.56
0.70,2.56
0.71,2.56
0.70,2.56
0.70,2.55
0.71,2.54
0.71,2.53
0.69,2.52
0.70,2.51
0.71,2.50
0.70,2.50
0.70,2.49
0.71,2.41
0.70,2.44
0.70,2.47
0.71,2.48
0.70,2.50
0.70,2.52
0.71,2.53
0.70,2.53
0.70,2.53
0.71,2.53
0.70,2.52
0.70,2.50
0.70,2.50
0.71,2.47
0.70,2.46
0.70,2.47
0.71,2.48
0.70,2.50
0.70,2.53
0.71,2.58
0.70,2.61
0.70,2.66
0.71,2.71
0.70,2.75
0.70,2.77
0.71,2.78
0.71,2.78
0.70,2.76
0.71,2.75
0.71,2.73
0.70,2.73
0.70,2.72
0.71,2.70
0.70,2.69
0.70,2.68
0.71,2.60
0.70,2.62
0.70,2.63
0.71,2.63
0.70,2.62
0.70,2.61
0.71,2.61
0.70,2.60
0.70,2.60
0.71,2.61
0.71,2.60
0.70,2.59
0.71,2.59
0.71,2.59
0.70,2.58
0.70,2.58
0.71,2.58
0.70,2.56
0.70,2.55
0.71,2.54
0.70,2.53
0.70,2.52
0.71,2.51
0.70,2.52
0.70,2.53
0.70,2.53
0.71,2.53
0.70,2.52
0.70,2.51
0.71,2.51
0.70,2.51
0.70,2.51
0.71,2.51
0.70,2.52
0.70,2.52
0.71,2.51
0.70,2.44
0.70,2.47
0.71,2.49
0.70,2.48
0.69,2.48
0.71,2.48
0.71,2.48
0.70,2.48
0.70,2.47
0.71,2.49
0.70,2.49
0.70,2.49
0.71,2.48
0.70,2.48
0.70,2.49
0.71,2.49
0.70,2.49
0.70,2.51
0.71,2.54
0.70,2.58
0.70,2.62
0.71,2.67
0.70,2.70
0.69,2.72
0.71,2.73
0.71,2.74
0.70,2.74
0.70,2.74
0.71,2.74
0.70,2.74
0.70,2.74
0.71,2.72
0.70,2.69
0.70,2.68
0.71,2.66
0.70,2.55
0.70,2.57
0.71,2.58
0.71,2.58
0.70,2.58
0.70,2.58
0.71,2.57
0.70,2.58
0.70,2.60
0.71,2.60
0.69,2.60
0.70,2.60
0.71,2.57
0.70,2.55
0.70,2.54
0.71,2.52
0.70,2.51
0.70,2.51
0.71,2.52
0.71,2.53
0.69,2.52
0.71,2.52
0.71,2.52
0.69,2.51
0.71,2.51
0.71,2.50
0.70,2.52
0.70,2.53
0.71,2.53
0.70,2.52
0.70,2.49
0.71,2.46
0.70,2.45
0.70,2.43
0.71,2.43
0.70,2.42
0.70,2.35
0.71,2.39
0.71,2.43
0.70,2.44
0.71,2.45
0.71,2.46
0.70,2.46
0.70,2.46
0.71,2.46
0.70,2.48
0.70,2.49
0.71,2.50
0.70,2.50
0.70,2.51
0.71,2.52
0.70,2.54
0.70,2.58
0.71,2.61
0.71,2.65
0.70,2.68
0.70,2.71
0.71,2.72
0.70,2.74
0.70,2.74
0.71,2.74
0.70,2.72
0.70,2.71
0.71,2.69
0.70,2.68
0.70,2.66
0.71,2.64
0.70,2.62
0.70,2.59
0.71,2.57
0.71,2.54
0.70,2.44
0.71,2.46
0.71,2.49
0.70,2.50
0.71,2.51
0.71,2.53
0.70,2.54
0.70,2.56
0.71,2.56
0.70,2.58
0.70,2.59
0.71,2.60
0.70,2.60
0.70,2.59
0.71,2.58
0.70,2.56
0.70,2.54
0.71,2.52
0.71,2.49
0.70,2.48
0.71,2.47
0.71,2.46
0.70,2.45
0.70,2.44
0.71,2.44
0.70,2.43
0.70,2.44
0.71,2.44
0.70,2.43
0.70,2.43
0.71,2.42
0.71,2.41
0.70,2.41
0.71,2.41
0.70,2.41
0.70,2.35
0.70,2.35
0.71,2.39
0.70,2.41
0.70,2.43
0.71,2.45
0.70,2.46
0.70,2.49
0.71,2.52
0.70,2.54
0.70,2.58
0.71,2.61
0.71,2.65
0.70,2.69
0.71,2.73
0.70,2.76
0.70,2.78
0.71,2.80
0.71,2.79
0.70,2.78
0.70,2.77
0.71,2.75
0.70,2.73
0.70,2.71
0.71,2.68
0.70,2.66
0.70,2.63
0.71,2.60
0.70,2.57
0.70,2.56
0.71,2.56
0.71,2.55
0.70,2.56
0.71,2.57
0.70,2.57
0.69,2.56
0.70,2.44
0.71,2.48
0.70,2.51
0.70,2.53
0.71,2.54
0.70,2.56
0.70,2.57
0.71,2.58
0.70,2.59
0.70,2.58
0.71,2.56
0.70,2.54
0.70,2.52
0.71,2.51
0.71,2.51
0.70,2.50
0.70,2.50
0.71,2.49
0.70,2.48
0.70,2.48
0.71,2.46
0.70,2.45
0.70,2.44
0.71,2.44
0.70,2.43
0.70,2.44
0.71,2.44
0.70,2.43
0.70,2.43
0.71,2.44
0.71,2.44
0.70,2.43
0.71,2.43
0.71,2.43
0.70,2.42
0.70,2.40
0.71,2.34
0.70,2.36
0.70,2.39
0.71,2.42
0.70,2.46
0.70,2.50
0.71,2.53
0.71,2.58
0.70,2.63
0.71,2.69
0.71,2.73
0.70,2.78
0.71,2.82
0.71,2.82
0.70,2.82
0.71,2.82
0.71,2.80
0.70,2.78
0.70,2.76
0.71,2.73
0.70,2.70
0.70,2.69
0.71,2.66
0.70,2.63
0.70,2.60
0.71,2.57
0.71,2.55
0.70,2.52
0.71,2.51
0.71,2.51
0.70,2.52
0.71,2.54
0.71,2.54
0.70,2.54
0.70,2.54
0.71,2.47
0.70,2.50
0.70,2.52
0.71,2.54
0.70,2.56
0.70,2.57
0.71,2.57
0.70,2.55
0.70,2.54
0.71,2.53
0.71,2.51
0.70,2.50
0.71,2.50
0.71,2.49
0.70,2.48
0.71,2.49
0.71,2.48
0.70,2.47
0.70,2.47
0.71,2.46
0.70,2.44
0.70,2.42
0.71,2.41
0.70,2.41
0.70,2.41
0.71,2.42
0.71,2.44
0.70,2.45
0.71,2.45
0.71,2.45
0.70,2.44
0.71,2.44
0.71,2.44
0.70,2.43
0.71,2.41
0.71,2.34
0.70,2.38
0.70,2.42
0.71,2.46
0.70,2.50
0.70,2.56
0.71,2.61
0.70,2.67
0.70,2.72
0.71,2.76
0.71,2.79
0.70,2.81
0.71,2.80
0.71,2.79
0.70,2.77
0.70,2.75
0.72,2.73
0.70,2.70
0.70,2.68
0.71,2.66
0.70,2.63
0.70,2.61
0.71,2.59
0.71,2.58
0.70,2.57
0.71,2.57
0.71,2.56
0.70,2.55
0.71,2.54
0.71,2.53
0.70,2.51
0.70,2.51
0.71,2.52
0.70,2.53
0.70,2.54
0.72,2.45
0.70,2.48
0.70,2.51
0.71,2.52
0.71,2.51
0.70,2.51
0.71,2.50
0.71,2.48
0.70,2.48
0.71,2.47
0.71,2.46
0.70,2.45
0.70,2.45
0.71,2.44
0.70,2.43
0.70,2.44
0.71,2.44
0.70,2.44
0.70,2.44
0.71,2.45
0.71,2.44
0.70,2.43
0.71,2.43
0.71,2.42
0.70,2.41
0.71,2.40
0.71,2.40
0.70,2.39
0.71,2.39
0.71,2.39
0.70,2.38
0.70,2.38
0.72,2.37
0.70,2.39
0.70,2.42
0.70,2.41
0.71,2.45
0.70,2.54
0.71,2.61
0.71,2.70
0.70,2.78
0.71,2.82
0.71,2.83
0.70,2.84
0.71,2.84
0.71,2.83
0.70,2.81
0.70,2.79
0.71,2.76
0.70,2.73
0.70,2.70
0.72,2.67
0.70,2.63
0.70,2.60
0.72,2.57
0.71,2.54
0.70,2.51
0.71,2.50
0.71,2.50
0.70,2.50
0.71,2.51
0.71,2.51
0.70,2.51
0.71,2.51
0.71,2.51
0.70,2.51
0.70,2.50
0.71,2.49
0.70,2.47
0.70,2.47
0.71,2.47
0.71,2.40
0.70,2.42
0.71,2.43
0.71,2.44
0.70,2.44
0.71,2.45
0.71,2.46
0.70,2.46
0.71,2.46
0.72,2.44
0.70,2.43
0.70,2.43
0.72,2.42
0.70,2.41
0.70,2.40
0.71,2.39
0.71,2.37
0.70,2.36
0.71,2.35
0.71,2.35
0.70,2.35
0.71,2.36
0.71,2.38
0.70,2.39
0.71,2.40
0.71,2.40
0.70,2.39
0.70,2.39
0.72,2.38
0.70,2.39
0.70,2.42
0.72,2.45
0.70,2.51
0.70,2.58
0.71,2.64
0.71,2.61
0.70,2.68
0.71,2.75
0.71,2.79
0.70,2.83
0.71,2.85
0.71,2.85
0.70,2.84
0.71,2.82
0.71,2.80
0.71,2.76
0.70,2.73
0.71,2.70
0.70,2.65
0.70,2.62
0.71,2.60
0.71,2.58
0.70,2.54
0.71,2.52
0.71,2.50
0.70,2.48
0.71,2.48
0.71,2.47
0.70,2.47
0.71,2.45
0.71,2.44
0.70,2.45
0.71,2.45
0.72,2.45
0.70,2.44
0.70,2.45
0.71,2.46
0.71,2.45
0.70,2.44
0.71,2.43
0.71,2.42
0.70,2.35
0.71,2.38
0.71,2.40
0.70,2.42
0.71,2.44
0.72,2.44
0.70,2.43
0.70,2.43
0.72,2.43
0.70,2.41
0.70,2.40
0.72,2.39
0.71,2.39
0.70,2.38
0.71,2.37
0.71,2.36
0.70,2.35
0.71,2.35
0.71,2.34
0.70,2.34
0.71,2.32
0.72,2.31
0.70,2.31
0.71,2.31
0.72,2.31
0.70,2.31
0.71,2.31
0.72,2.32
0.71,2.32
0.70,2.34
0.71,2.37
0.71,2.40
0.70,2.45
0.71,2.51
0.71,2.56
0.70,2.50
0.71,2.60
0.71,2.67
0.70,2.72
0.71,2.77
0.71,2.78
0.70,2.78
0.70,2.77
0.72,2.75
0.71,2.70
0.70,2.67
0.71,2.63
0.71,2.61
0.70,2.59
0.71,2.56
0.71,2.53
0.70,2.49
0.71,2.46
0.71,2.44
0.70,2.43
0.71,2.42
0.72,2.41
0.70,2.41
0.70,2.41
0.72,2.42
0.70,2.44
0.70,2.46
0.71,2.46
0.71,2.46
0.70,2.45
0.71,2.44
0.71,2.43
0.70,2.42
0.71,2.43
0.71,2.42
0.70,2.39
0.71,2.34
0.71,2.38
0.70,2.39
0.70,2.39
0.72,2.39
0.71,2.37
0.70,2.36
0.72,2.36
0.71,2.35
0.70,2.35
0.72,2.36
0.71,2.36
0.70,2.35
0.71,2.34
0.71,2.33
0.70,2.32
0.71,2.32
0.71,2.33
0.70,2.34
0.71,2.35
0.72,2.35
0.70,2.35
0.70,2.35
0.72,2.35
0.71,2.35
0.70,2.35
0.71,2.34
0.71,2.31
0.70,2.30
0.72,2.30
0.71,2.31
0.70,2.33
0.71,2.38
0.72,2.42
0.70,2.47
0.71,2.42
0.72,2.50
0.71,2.55
0.70,2.60
0.72,2.63
0.71,2.65
0.70,2.65
0.72,2.65
0.71,2.63
0.70,2.61
0.71,2.60
0.71,2.58
0.70,2.56
0.71,2.54
0.72,2.51
0.70,2.49
0.71,2.46
0.72,2.44
0.70,2.42
0.71,2.42
0.72,2.43
0.71,2.43
0.70,2.44
0.71,2.44
0.71,2.44
0.70,2.43
0.71,2.43
0.71,2.42
0.70,2.41
0.71,2.41
0.72,2.40
0.70,2.40
0.71,2.40
0.71,2.40
0.70,2.40
0.70,2.40
0.72,2.33
0.70,2.35
0.71,2.36
0.72,2.37
0.71,2.38
0.70,2.40
0.72,2.42
0.71,2.42
0.70,2.42
0.71,2.41
0.72,2.39
0.70,2.39
0.71,2.37
0.71,2.35
0.70,2.33
0.71,2.32
0.72,2.30
0.70,2.29
0.70,2.30
0.71,2.31
0.71,2.31
0.70,2.31
0.72,2.32
0.71,2.33
0.70,2.33
0.71,2.33
0.71,2.33
0.70,2.32
0.71,2.32
0.71,2.32
0.70,2.31
0.71,2.33
0.72,2.36
0.70,2.39
0.70,2.43
0.72,2.47
0.71,2.44
0.70,2.51
0.72,2.56
0.71,2.60
0.70,2.62
0.71,2.62
0.71,2.61
0.70,2.60
0.71,2.58
0.72,2.56
0.70,2.55
0.71,2.54
0.72,2.51
0.70,2.49
0.71,2.48
0.72,2.46
0.71,2.44
0.70,2.42
0.72,2.42
0.71,2.41
0.70,2.41
0.72,2.41
0.71,2.40
0.70,2.40
0.71,2.40
0.71,2.41
0.70,2.42
0.71,2.44
0.72,2.44
0.70,2.43
0.71,2.43
0.72,2.44
0.70,2.43
0.70,2.43
0.72,2.42
0.71,2.34
0.70,2.37
0.72,2.39
0.71,2.39
0.70,2.40
0.71,2.40
0.72,2.39
0.70,2.39
0.71,2.40
0.71,2.39
0.70,2.38
0.71,2.38
0.72,2.37
0.71,2.35
0.71,2.34
0.72,2.33
0.71,2.33
0.70,2.33
0.72,2.34
0.71,2.34
0.70,2.35
0.71,2.34
0.71,2.35
0.70,2.35
0.71,2.34
0.72,2.34
0.71,2.34
0.71,2.36
0.72,2.36
0.71,2.36
0.71,2.36
0.72,2.37
0.71,2.38
0.70,2.39
0.72,2.41
0.71,2.36
0.70,2.42
0.71,2.47
0.71,2.51
0.70,2.56
0.71,2.59
0.71,2.60
0.70,2.61
0.71,2.61
0.72,2.60
0.71,2.58
0.70,2.56
0.72,2.54
0.71,2.51
0.71,2.48
0.72,2.46
0.71,2.45
0.70,2.44
0.72,2.43
0.71,2.43
0.70,2.42
0.71,2.41
0.71,2.41
0.70,2.41
0.71,2.42
0.72,2.43
0.70,2.43
0.71,2.44
0.72,2.44
0.71,2.45
0.70,2.45
0.72,2.45
0.71,2.44
0.70,2.45
0.71,2.44
0.71,2.43
0.70,2.36
0.72,2.38
0.71,2.39
0.70,2.40
0.71,2.41
0.72,2.41
0.71,2.42
0.71,2.42
0.72,2.41
0.70,2.40
0.71,2.38
0.72,2.37
0.70,2.37
0.70,2.36
0.72,2.36
0.71,2.36
0.70,2.36
0.71,2.36
0.71,2.36
0.70,2.37
0.71,2.37
0.72,2.36
0.70,2.36
0.71,2.37
0.72,2.37
0.70,2.37
0.71,2.37
0.72,2.38
0.71,2.39
0.71,2.40
0.72,2.42
0.71,2.46
0.70,2.50
0.71,2.53
0.71,2.55
0.70,2.51
0.71,2.56
0.71,2.60
0.70,2.62
0.71,2.63
0.72,2.62
0.70,2.60
0.71,2.58
0.72,2.57
0.71,2.55
0.71,2.52
0.72,2.50
0.71,2.49
0.70,2.48
0.71,2.46
0.71,2.46
0.70,2.46
0.71,2.45
0.71,2.44
0.71,2.43
0.71,2.43
0.72,2.42
0.70,2.42
0.71,2.41
0.72,2.39
0.71,2.40
0.70,2.39
0.72,2.40
0.71,2.40
0.71,2.42
0.72,2.41
0.71,2.41
0.70,2.41
0.71,2.41
0.71,2.42
0.70,2.35
0.71,2.38
0.71,2.40
0.70,2.41
0.71,2.42
0.72,2.43
0.70,2.42
0.71,2.42
0.72,2.42
0.71,2.40
0.70,2.40
0.72,2.39
0.71,2.39
0.70,2.39
0.72,2.38
0.71,2.38
0.70,2.38
0.71,2.37
0.72,2.35
0.70,2.34
0.71,2.33
0.72,2.33
0.71,2.34
0.71,2.35
0.72,2.36
0.70,2.37
0.71,2.38
0.72,2.39
0.71,2.41
0.70,2.44
0.72,2.46
0.71,2.50
0.70,2.53
0.71,2.56
0.72,2.58
0.71,2.51
0.71,2.53
0.72,2.56
0.70,2.58
0.71,2.59
0.72,2.59
0.71,2.58
0.71,2.57
0.72,2.55
0.71,2.54
0.70,2.51
0.72,2.49
0.71,2.46
0.71,2.44
0.71,2.43
0.71,2.41
0.71,2.42
0.71,2.44
0.72,2.44
0.70,2.43
0.71,2.43
0.72,2.43
0.71,2.42
0.71,2.43
0.72,2.43
0.71,2.42
0.71,2.43
0.72,2.43
0.71,2.45
0.70,2.45
0.72,2.46
0.71,2.45
0.70,2.45
0.71,2.44
0.72,2.43
0.71,2.33
0.71,2.34
0.72,2.38
0.71,2.40
0.71,2.42
0.72,2.44
0.71,2.43
0.71,2.42
0.72,2.41
0.71,2.39
0.70,2.39
0.72,2.39
0.72,2.38
0.70,2.39
0.71,2.40
0.72,2.39
0.71,2.39
0.71,2.39
0.72,2.38
0.70,2.37
0.71,2.39
0.72,2.40
0.71,2.41
0.70,2.42
0.72,2.43
0.71,2.43
0.70,2.44
0.72,2.45
0.71,2.46
0.70,2.49
0.72,2.52
0.71,2.54
0.70,2.57
0.71,2.60
0.72,2.61
0.71,2.61
0.71,2.53
0.72,2.56
0.71,2.57
0.71,2.58
0.72,2.58
0.71,2.56
0.70,2.55
0.72,2.54
0.71,2.52
0.70,2.50
0.72,2.48
0.72,2.47
0.71,2.46
0.71,2.46
0.72,2.44
0.71,2.43
0.71,2.42
0.72,2.42
0.71,2.42
0.71,2.42
0.72,2.43
0.71,2.44
0.71,2.45
0.72,2.47
0.71,2.48
0.70,2.47
0.72,2.47
0.72,2.46
0.71,2.45
0.72,2.44
0.72,2.44
0.71,2.43
0.71,2.43
0.72,2.44
0.72,2.41
0.71,2.39
0.72,2.41
0.71,2.43
0.71,2.44
0.72,2.44
0.71,2.44
0.71,2.43
0.72,2.42
0.71,2.41
0.71,2.40
0.72,2.40
0.72,2.39
0.71,2.39
0.71,2.39
0.72,2.39
0.71,2.39
0.71,2.39
0.72,2.38
0.71,2.38
0.70,2.38
0.72,2.37
0.71,2.37
0.70,2.38
0.72,2.39
0.71,2.38
0.71,2.38
0.71,2.39
0.72,2.41
0.71,2.44
0.71,2.47
0.72,2.49
0.71,2.51
0.71,2.54
0.72,2.56
0.70,2.59
0.71,2.54
0.72,2.57
0.71,2.61
0.71,2.61
0.72,2.62
0.71,2.61
0.70,2.59
0.72,2.56
0.72,2.54
0.70,2.52
0.72,2.50
0.72,2.49
0.70,2.49
0.71,2.48
0.72,2.47
0.70,2.47
0.71,2.49
0.72,2.49
0.71,2.49
0.71,2.49
0.72,2.50
0.71,2.50
0.70,2.50
0.72,2.49
0.72,2.49
0.70,2.49
0.71,2.48
0.72,2.48
0.71,2.48
0.71,2.48
0.72,2.46
0.71,2.44
0.71,2.42
0.72,2.41
0.71,2.41
0.71,2.35
0.72,2.39
0.71,2.42
0.71,2.44
0.72,2.46
0.72,2.47
0.71,2.48
0.72,2.47
0.72,2.45
0.71,2.43
0.71,2.43
0.72,2.41
0.70,2.40
0.71,2.41
0.72,2.41
0.71,2.40
0.71,2.40
0.72,2.40
0.71,2.40
0.70,2.41
0.72,2.41
0.71,2.41
0.70,2.41
0.72,2.41
0.72,2.42
0.71,2.43
0.71,2.43
0.72,2.43
0.71,2.43
0.71,2.46
0.72,2.48
0.71,2.51
0.71,2.53
0.7